    4.000      204
    4.015      195
    4.030      206
    4.045      208
    4.060      232
    4.075      224
    4.090      234
    4.105      216
    4.120      202
    4.135      212
    4.150      205
    4.165      198
    4.180      193
    4.195      178
    4.210      201
    4.225      198
    4.240      207
    4.255      212
    4.270      208
    4.285      235
    4.300      209
    4.315      215
    4.330      226
    4.345      203
    4.360      205
    4.375      202
    4.390      197
    4.405      207
    4.420      200
    4.435      185
    4.450      195
    4.465      178
    4.480      168
    4.495      199
    4.510      197
    4.525      191
    4.540      182
    4.555      199
    4.570      195
    4.585      210
    4.600      204
    4.615      205
    4.630      195
    4.645      209
    4.660      199
    4.675      207
    4.690      218
    4.705      208
    4.720      194
    4.735      195
    4.750      206
    4.765      215
    4.780      172
    4.795      195
    4.810      217
    4.825      204
    4.840      220
    4.855      210
    4.870      208
    4.885      210
    4.900      196
    4.915      188
    4.930      208
    4.945      235
    4.960      211
    4.975      186
    4.990      185
    5.005      206
    5.020      208
    5.035      184
    5.050      193
    5.065      191
    5.080      193
    5.095      194
    5.110      194
    5.125      195
    5.140      189
    5.155      203
    5.170      200
    5.185      183
    5.200      188
    5.215      194
    5.230      207
    5.245      199
    5.260      187
    5.275      190
    5.290      184
    5.305      179
    5.320      177
    5.335      187
    5.350      201
    5.365      199
    5.380      180
    5.395      174
    5.410      166
    5.425      195
    5.440      188
    5.455      191
    5.470      195
    5.485      198
    5.500      187
    5.515      187
    5.530      194
    5.545      203
    5.560      195
    5.575      194
    5.590      209
    5.605      173
    5.620      215
    5.635      196
    5.650      189
    5.665      194
    5.680      177
    5.695      176
    5.710      179
    5.725      177
    5.740      187
    5.755      184
    5.770      191
    5.785      201
    5.800      189
    5.815      206
    5.830      192
    5.845      203
    5.860      188
    5.875      184
    5.890      217
    5.905      201
    5.920      200
    5.935      191
    5.950      183
    5.965      176
    5.980      196
    5.995      206
    6.010      207
    6.025      185
    6.040      186
    6.055      181
    6.070      210
    6.085      201
    6.100      194
    6.115      208
    6.130      172
    6.145      186
    6.160      189
    6.175      193
    6.190      204
    6.205      187
    6.220      228
    6.235      224
    6.250      213
    6.265      204
    6.280      199
    6.295      214
    6.310      239
    6.325      237
    6.340      241
    6.355      240
    6.370      245
    6.385      237
    6.400      268
    6.415      266
    6.430      281
    6.445      292
    6.460      308
    6.475      312
    6.490      325
    6.505      349
    6.520      396
    6.535      439
    6.550      428
    6.565      425
    6.580      425
    6.595      454
    6.610      461
    6.625      340
    6.640      245
    6.655      197
    6.670      184
    6.685      182
    6.700      184
    6.715      179
    6.730      170
    6.745      190
    6.760      194
    6.775      169
    6.790      182
    6.805      185
    6.820      185
    6.835      188
    6.850      204
    6.865      195
    6.880      196
    6.895      199
    6.910      197
    6.925      174
    6.940      218
    6.955      200
    6.970      219
    6.985      192
    7.000      204
    7.015      192
    7.030      228
    7.045      217
    7.060      234
    7.075      255
    7.090      279
    7.105      299
    7.120      329
    7.135      259
    7.150      242
    7.165      194
    7.180      171
    7.195      184
    7.210      165
    7.225      195
    7.240      169
    7.255      169
    7.270      188
    7.285      173
    7.300      181
    7.315      188
    7.330      203
    7.345      184
    7.360      198
    7.375      192
    7.390      201
    7.405      180
    7.420      186
    7.435      180
    7.450      174
    7.465      184
    7.480      202
    7.495      221
    7.510      199
    7.525      220
    7.540      220
    7.555      227
    7.570      256
    7.585      240
    7.600      210
    7.615      204
    7.630      192
    7.645      183
    7.660      175
    7.675      200
    7.690      192
    7.705      173
    7.720      169
    7.735      189
    7.750      194
    7.765      186
    7.780      193
    7.795      197
    7.810      188
    7.825      183
    7.840      165
    7.855      161
    7.870      170
    7.885      177
    7.900      169
    7.915      177
    7.930      188
    7.945      194
    7.960      179
    7.975      165
    7.990      166
    8.005      167
    8.020      173
    8.035      177
    8.050      180
    8.065      185
    8.080      176
    8.095      191
    8.110      191
    8.125      195
    8.140      179
    8.155      175
    8.170      192
    8.185      190
    8.200      157
    8.215      169
    8.230      163
    8.245      156
    8.260      160
    8.275      192
    8.290      184
    8.305      171
    8.320      182
    8.335      189
    8.350      189
    8.365      186
    8.380      186
    8.395      159
    8.410      173
    8.425      190
    8.440      182
    8.455      171
    8.470      191
    8.485      188
    8.500      174
    8.515      173
    8.530      181
    8.545      185
    8.560      191
    8.575      174
    8.590      204
    8.605      185
    8.620      182
    8.635      179
    8.650      177
    8.665      162
    8.680      177
    8.695      174
    8.710      173
    8.725      183
    8.740      176
    8.755      169
    8.770      201
    8.785      187
    8.800      174
    8.815      187
    8.830      181
    8.845      185
    8.860      190
    8.875      187
    8.890      175
    8.905      186
    8.920      192
    8.935      182
    8.950      176
    8.965      191
    8.980      182
    8.995      183
    9.010      184
    9.025      200
    9.040      186
    9.055      183
    9.070      180
    9.085      196
    9.100      173
    9.115      183
    9.130      196
    9.145      197
    9.160      187
    9.175      194
    9.190      208
    9.205      197
    9.220      189
    9.235      187
    9.250      189
    9.265      191
    9.280      173
    9.295      186
    9.310      198
    9.325      195
    9.340      199
    9.355      190
    9.370      191
    9.385      185
    9.400      180
    9.415      196
    9.430      188
    9.445      177
    9.460      187
    9.475      192
    9.490      196
    9.505      186
    9.520      203
    9.535      196
    9.550      204
    9.565      200
    9.580      183
    9.595      205
    9.610      235
    9.625      220
    9.640      239
    9.655      214
    9.670      236
    9.685      264
    9.700      261
    9.715      236
    9.730      231
    9.745      232
    9.760      227
    9.775      207
    9.790      209
    9.805      183
    9.820      186
    9.835      195
    9.850      190
    9.865      198
    9.880      191
    9.895      190
    9.910      177
    9.925      202
    9.940      199
    9.955      165
    9.970      188
    9.985      190
   10.000      189
   10.015      192
   10.030      182
   10.045      171
   10.060      170
   10.075      181
   10.090      209
   10.105      213
   10.120      183
   10.135      211
   10.150      217
   10.165      202
   10.180      197
   10.195      200
   10.210      244
   10.225      222
   10.240      249
   10.255      264
   10.270      275
   10.285      279
   10.300      292
   10.315      305
   10.330      328
   10.345      385
   10.360      438
   10.375      440
   10.390      363
   10.405      365
   10.420      371
   10.435      320
   10.450      268
   10.465      243
   10.480      208
   10.495      213
   10.510      211
   10.525      185
   10.540      199
   10.555      197
   10.570      207
   10.585      215
   10.600      192
   10.615      207
   10.630      212
   10.645      208
   10.660      205
   10.675      211
   10.690      222
   10.705      221
   10.720      267
   10.735      273
   10.750      293
   10.765      260
   10.780      238
   10.795      230
   10.810      234
   10.825      213
   10.840      199
   10.855      183
   10.870      174
   10.885      184
   10.900      200
   10.915      202
   10.930      200
   10.945      221
   10.960      223
   10.975      229
   10.990      237
   11.005      247
   11.020      244
   11.035      250
   11.050      266
   11.065      307
   11.080      317
   11.095      338
   11.110      341
   11.125      395
   11.140      398
   11.155      343
   11.170      266
   11.185      227
   11.200      237
   11.215      220
   11.230      223
   11.245      226
   11.260      238
   11.275      266
   11.290      289
   11.305      319
   11.320      266
   11.335      225
   11.350      200
   11.365      177
   11.380      204
   11.395      175
   11.410      172
   11.425      172
   11.440      174
   11.455      172
   11.470      171
   11.485      174
   11.500      163
   11.515      151
   11.530      156
   11.545      154
   11.560      178
   11.575      163
   11.590      175
   11.605      182
   11.620      184
   11.635      173
   11.650      219
   11.665      184
   11.680      192
   11.695      226
   11.710      228
   11.725      255
   11.740      247
   11.755      285
   11.770      320
   11.785      310
   11.800      299
   11.815      306
   11.830      243
   11.845      233
   11.860      210
   11.875      188
   11.890      200
   11.905      229
   11.920      249
   11.935      232
   11.950      241
   11.965      218
   11.980      192
   11.995      182
   12.010      183
   12.025      173
   12.040      189
   12.055      165
   12.070      164
   12.085      164
   12.100      160
   12.115      171
   12.130      168
   12.145      148
   12.160      170
   12.175      176
   12.190      178
   12.205      172
   12.220      178
   12.235      188
   12.250      173
   12.265      183
   12.280      195
   12.295      199
   12.310      215
   12.325      217
   12.340      237
   12.355      257
   12.370      303
   12.385      374
   12.400      416
   12.415      499
   12.430      580
   12.445      659
   12.460      803
   12.475      942
   12.490     1180
   12.505     1360
   12.520     1708
   12.535     1998
   12.550     1980
   12.565     1613
   12.580     1292
   12.595     1156
   12.610     1196
   12.625     1257
   12.640     1247
   12.655     1147
   12.670      879
   12.685      610
   12.700      382
   12.715      275
   12.730      259
   12.745      251
   12.760      206
   12.775      235
   12.790      256
   12.805      260
   12.820      272
   12.835      312
   12.850      308
   12.865      365
   12.880      438
   12.895      488
   12.910      565
   12.925      709
   12.940      750
   12.955      666
   12.970      610
   12.985      559
   13.000      612
   13.015      686
   13.030      800
   13.045      953
   13.060     1154
   13.075     1384
   13.090     1843
   13.105     2194
   13.120     2094
   13.135     1689
   13.150     1516
   13.165     1548
   13.180     1909
   13.195     2173
   13.210     2674
   13.225     3547
   13.240     3920
   13.255     3394
   13.270     2208
   13.285     1209
   13.300      666
   13.315      477
   13.330      417
   13.345      392
   13.360      391
   13.375      399
   13.390      425
   13.405      474
   13.420      590
   13.435      681
   13.450      719
   13.465      789
   13.480      834
   13.495      871
   13.510      829
   13.525      690
   13.540      525
   13.555      318
   13.570      274
   13.585      252
   13.600      224
   13.615      254
   13.630      236
   13.645      265
   13.660      294
   13.675      330
   13.690      361
   13.705      411
   13.720      459
   13.735      523
   13.750      473
   13.765      361
   13.780      269
   13.795      230
   13.810      210
   13.825      179
   13.840      169
   13.855      159
   13.870      139
   13.885      161
   13.900      174
   13.915      148
   13.930      153
   13.945      152
   13.960      141
   13.975      151
   13.990      186
   14.005      178
   14.020      170
   14.035      168
   14.050      187
   14.065      210
   14.080      223
   14.095      229
   14.110      265
   14.125      285
   14.140      354
   14.155      423
   14.170      504
   14.185      517
   14.200      454
   14.215      441
   14.230      407
   14.245      450
   14.260      501
   14.275      572
   14.290      583
   14.305      554
   14.320      655
   14.335      747
   14.350      759
   14.365      954
   14.380     1031
   14.395      970
   14.410      720
   14.425      460
   14.440      286
   14.455      218
   14.470      200
   14.485      198
   14.500      180
   14.515      158
   14.530      161
   14.545      151
   14.560      171
   14.575      161
   14.590      168
   14.605      162
   14.620      154
   14.635      166
   14.650      166
   14.665      163
   14.680      168
   14.695      168
   14.710      176
   14.725      160
   14.740      194
   14.755      193
   14.770      227
   14.785      254
   14.800      321
   14.815      320
   14.830      370
   14.845      474
   14.860      620
   14.875      732
   14.890      813
   14.905      900
   14.920     1008
   14.935     1070
   14.950     1336
   14.965     1670
   14.980     1898
   14.995     1679
   15.010     1143
   15.025      686
   15.040      447
   15.055      362
   15.070      310
   15.085      285
   15.100      291
   15.115      322
   15.130      366
   15.145      384
   15.160      434
   15.175      525
   15.190      537
   15.205      598
   15.220      527
   15.235      521
   15.250      450
   15.265      410
   15.280      393
   15.295      351
   15.310      296
   15.325      294
   15.340      274
   15.355      290
   15.370      283
   15.385      329
   15.400      378
   15.415      430
   15.430      489
   15.445      596
   15.460      700
   15.475      748
   15.490      755
   15.505      622
   15.520      445
   15.535      362
   15.550      362
   15.565      347
   15.580      369
   15.595      427
   15.610      472
   15.625      541
   15.640      667
   15.655      704
   15.670      682
   15.685      605
   15.700      452
   15.715      320
   15.730      256
   15.745      224
   15.760      199
   15.775      190
   15.790      215
   15.805      212
   15.820      202
   15.835      260
   15.850      258
   15.865      292
   15.880      303
   15.895      348
   15.910      407
   15.925      471
   15.940      544
   15.955      648
   15.970      777
   15.985     1006
   16.000     1126
   16.015      927
   16.030      648
   16.045      394
   16.060      314
   16.075      273
   16.090      298
   16.105      272
   16.120      308
   16.135      392
   16.150      476
   16.165      544
   16.180      656
   16.195      646
   16.210      621
   16.225      638
   16.240      666
   16.255      743
   16.270      929
   16.285     1191
   16.300     1301
   16.315     1070
   16.330      847
   16.345      691
   16.360      606
   16.375      691
   16.390      787
   16.405      897
   16.420     1072
   16.435     1194
   16.450     1098
   16.465      929
   16.480      740
   16.495      706
   16.510      776
   16.525      821
   16.540      971
   16.555     1223
   16.570     1374
   16.585     1255
   16.600     1061
   16.615      888
   16.630      804
   16.645      877
   16.660      889
   16.675      867
   16.690      947
   16.705      869
   16.720      714
   16.735      547
   16.750      402
   16.765      315
   16.780      294
   16.795      300
   16.810      324
   16.825      329
   16.840      348
   16.855      417
   16.870      471
   16.885      581
   16.900      661
   16.915      676
   16.930      639
   16.945      486
   16.960      338
   16.975      304
   16.990      307
   17.005      324
   17.020      339
   17.035      375
   17.050      423
   17.065      479
   17.080      549
   17.095      570
   17.110      557
   17.125      569
   17.140      495
   17.155      424
   17.170      376
   17.185      361
   17.200      331
   17.215      305
   17.230      310
   17.245      323
   17.260      321
   17.275      373
   17.290      465
   17.305      559
   17.320      614
   17.335      657
   17.350      513
   17.365      392
   17.380      270
   17.395      223
   17.410      184
   17.425      188
   17.440      187
   17.455      193
   17.470      212
   17.485      189
   17.500      211
   17.515      247
   17.530      333
   17.545      320
   17.560      327
   17.575      333
   17.590      336
   17.605      415
   17.620      398
   17.635      321
   17.650      251
   17.665      225
   17.680      212
   17.695      171
   17.710      170
   17.725      189
   17.740      178
   17.755      170
   17.770      162
   17.785      138
   17.800      154
   17.815      127
   17.830      134
   17.845      139
   17.860      114
   17.875      118
   17.890      117
   17.905      127
   17.920      144
   17.935      138
   17.950      158
   17.965      157
   17.980      163
   17.995      171
   18.010      167
   18.025      184
   18.040      215
   18.055      237
   18.070      286
   18.085      311
   18.100      344
   18.115      358
   18.130      366
   18.145      403
   18.160      398
   18.175      434
   18.190      365
   18.205      281
   18.220      216
   18.235      187
   18.250      176
   18.265      178
   18.280      160
   18.295      186
   18.310      195
   18.325      213
   18.340      250
   18.355      288
   18.370      332
   18.385      405
   18.400      507
   18.415      585
   18.430      597
   18.445      523
   18.460      506
   18.475      521
   18.490      578
   18.505      651
   18.520      771
   18.535      871
   18.550      827
   18.565      704
   18.580      577
   18.595      428
   18.610      316
   18.625      282
   18.640      299
   18.655      291
   18.670      292
   18.685      343
   18.700      342
   18.715      374
   18.730      430
   18.745      543
   18.760      500
   18.775      433
   18.790      383
   18.805      386
   18.820      371
   18.835      372
   18.850      291
   18.865      214
   18.880      193
   18.895      181
   18.910      154
   18.925      155
   18.940      145
   18.955      137
   18.970      133
   18.985      144
   19.000      135
   19.015      125
   19.030      148
   19.045      132
   19.060      140
   19.075      143
   19.090      131
   19.105      136
   19.120      119
   19.135      114
   19.150      126
   19.165      132
   19.180      125
   19.195      134
   19.210      124
   19.225      131
   19.240      136
   19.255      131
   19.270      126
   19.285      160
   19.300      155
   19.315      170
   19.330      172
   19.345      202
   19.360      187
   19.375      221
   19.390      262
   19.405      326
   19.420      363
   19.435      423
   19.450      433
   19.465      476
   19.480      438
   19.495      450
   19.510      406
   19.525      353
   19.540      295
   19.555      264
   19.570      244
   19.585      272
   19.600      316
   19.615      330
   19.630      405
   19.645      485
   19.660      581
   19.675      703
   19.690      933
   19.705     1065
   19.720     1237
   19.735     1301
   19.750     1075
   19.765      871
   19.780      712
   19.795      633
   19.810      694
   19.825      738
   19.840      849
   19.855      908
   19.870      866
   19.885      706
   19.900      602
   19.915      521
   19.930      488
   19.945      390
   19.960      311
   19.975      249
   19.990      249
   20.005      259
   20.020      295
   20.035      318
   20.050      350
   20.065      360
   20.080      362
   20.095      295
   20.110      248
   20.125      203
   20.140      167
   20.155      132
   20.170      152
   20.185      154
   20.200      126
   20.215      128
   20.230      132
   20.245      132
   20.260      140
   20.275      142
   20.290      136
   20.305      155
   20.320      163
   20.335      145
   20.350      148
   20.365      163
   20.380      170
   20.395      204
   20.410      205
   20.425      234
   20.440      197
   20.455      191
   20.470      186
   20.485      183
   20.500      195
   20.515      204
   20.530      226
   20.545      253
   20.560      319
   20.575      383
   20.590      438
   20.605      481
   20.620      495
   20.635      473
   20.650      427
   20.665      430
   20.680      457
   20.695      537
   20.710      524
   20.725      393
   20.740      305
   20.755      273
   20.770      244
   20.785      201
   20.800      186
   20.815      257
   20.830      230
   20.845      217
   20.860      195
   20.875      205
   20.890      205
   20.905      216
   20.920      225
   20.935      214
   20.950      234
   20.965      225
   20.980      196
   20.995      197
   21.010      173
   21.025      186
   21.040      185
   21.055      194
   21.070      236
   21.085      227
   21.100      219
   21.115      183
   21.130      172
   21.145      145
   21.160      137
   21.175      149
   21.190      147
   21.205      149
   21.220      150
   21.235      152
   21.250      158
   21.265      166
   21.280      204
   21.295      233
   21.310      278
   21.325      351
   21.340      370
   21.355      400
   21.370      518
   21.385      611
   21.400      651
   21.415      638
   21.430      669
   21.445      594
   21.460      508
   21.475      480
   21.490      497
   21.505      545
   21.520      599
   21.535      722
   21.550      830
   21.565     1065
   21.580     1238
   21.595     1575
   21.610     1882
   21.625     1855
   21.640     1442
   21.655     1041
   21.670      706
   21.685      542
   21.700      523
   21.715      521
   21.730      582
   21.745      534
   21.760      413
   21.775      311
   21.790      256
   21.805      205
   21.820      183
   21.835      164
   21.850      163
   21.865      167
   21.880      163
   21.895      178
   21.910      168
   21.925      194
   21.940      186
   21.955      181
   21.970      191
   21.985      198
   22.000      194
   22.015      189
   22.030      203
   22.045      210
   22.060      211
   22.075      222
   22.090      213
   22.105      235
   22.120      224
   22.135      234
   22.150      258
   22.165      251
   22.180      312
   22.195      335
   22.210      354
   22.225      369
   22.240      392
   22.255      320
   22.270      292
   22.285      260
   22.300      239
   22.315      270
   22.330      248
   22.345      313
   22.360      386
   22.375      473
   22.390      521
   22.405      600
   22.420      584
   22.435      510
   22.450      405
   22.465      343
   22.480      309
   22.495      283
   22.510      302
   22.525      295
   22.540      352
   22.555      389
   22.570      428
   22.585      502
   22.600      511
   22.615      619
   22.630      673
   22.645      655
   22.660      640
   22.675      557
   22.690      555
   22.705      536
   22.720      466
   22.735      449
   22.750      373
   22.765      321
   22.780      311
   22.795      296
   22.810      282
   22.825      346
   22.840      371
   22.855      392
   22.870      424
   22.885      369
   22.900      313
   22.915      291
   22.930      245
   22.945      259
   22.960      280
   22.975      310
   22.990      335
   23.005      336
   23.020      315
   23.035      281
   23.050      258
   23.065      233
   23.080      209
   23.095      182
   23.110      195
   23.125      179
   23.140      197
   23.155      243
   23.170      257
   23.185      291
   23.200      304
   23.215      281
   23.230      299
   23.245      254
   23.260      208
   23.275      171
   23.290      149
   23.305      134
   23.320      123
   23.335      131
   23.350      148
   23.365      151
   23.380      146
   23.395      163
   23.410      149
   23.425      148
   23.440      142
   23.455      121
   23.470      126
   23.485      136
   23.500      131
   23.515      128
   23.530      125
   23.545      133
   23.560      135
   23.575      142
   23.590      169
   23.605      190
   23.620      196
   23.635      198
   23.650      181
   23.665      173
   23.680      181
   23.695      182
   23.710      203
   23.725      209
   23.740      211
   23.755      276
   23.770      288
   23.785      317
   23.800      316
   23.815      298
   23.830      246
   23.845      199
   23.860      172
   23.875      165
   23.890      125
   23.905      145
   23.920      168
   23.935      172
   23.950      229
   23.965      264
   23.980      301
   23.995      334
   24.010      378
   24.025      446
   24.040      413
   24.055      381
   24.070      300
   24.085      243
   24.100      208
   24.115      204
   24.130      193
   24.145      215
   24.160      233
   24.175      235
   24.190      212
   24.205      215
   24.220      228
   24.235      217
   24.250      232
   24.265      262
   24.280      264
   24.295      207
   24.310      211
   24.325      201
   24.340      188
   24.355      196
   24.370      172
   24.385      161
   24.400      160
   24.415      166
   24.430      190
   24.445      193
   24.460      182
   24.475      167
   24.490      169
   24.505      192
   24.520      195
   24.535      180
   24.550      171
   24.565      155
   24.580      150
   24.595      139
   24.610      141
   24.625      152
   24.640      160
   24.655      167
   24.670      185
   24.685      218
   24.700      245
   24.715      275
   24.730      325
   24.745      335
   24.760      315
   24.775      319
   24.790      294
   24.805      289
   24.820      288
   24.835      310
   24.850      274
   24.865      308
   24.880      278
   24.895      268
   24.910      314
   24.925      372
   24.940      379
   24.955      330
   24.970      286
   24.985      293
   25.000      234
   25.015      191
   25.030      166
   25.045      164
   25.060      163
   25.075      155
   25.090      161
   25.105      161
   25.120      170
   25.135      161
   25.150      218
   25.165      240
   25.180      253
   25.195      283
   25.210      295
   25.225      290
   25.240      283
   25.255      274
   25.270      230
   25.285      229
   25.300      223
   25.315      267
   25.330      267
   25.345      337
   25.360      366
   25.375      409
   25.390      453
   25.405      505
   25.420      555
   25.435      565
   25.450      564
   25.465      596
   25.480      559
   25.495      482
   25.510      375
   25.525      298
   25.540      253
   25.555      222
   25.570      249
   25.585      269
   25.600      296
   25.615      332
   25.630      374
   25.645      380
   25.660      394
   25.675      348
   25.690      308
   25.705      242
   25.720      211
   25.735      195
   25.750      199
   25.765      207
   25.780      213
   25.795      229
   25.810      222
   25.825      209
   25.840      240
   25.855      276
   25.870      289
   25.885      300
   25.900      312
   25.915      295
   25.930      257
   25.945      220
   25.960      189
   25.975      183
   25.990      188
   26.005      192
   26.020      188
   26.035      173
   26.050      176
   26.065      161
   26.080      166
   26.095      166
   26.110      196
   26.125      191
   26.140      175
   26.155      174
   26.170      147
   26.185      140
   26.200      138
   26.215      132
   26.230      122
   26.245      122
   26.260      130
   26.275      124
   26.290      134
   26.305      167
   26.320      162
   26.335      181
   26.350      209
   26.365      221
   26.380      267
   26.395      307
   26.410      272
   26.425      243
   26.440      188
   26.455      153
   26.470      156
   26.485      174
   26.500      156
   26.515      159
   26.530      157
   26.545      180
   26.560      184
   26.575      220
   26.590      235
   26.605      272
   26.620      334
   26.635      374
   26.650      432
   26.665      560
   26.680      556
   26.695      576
   26.710      546
   26.725      539
   26.740      557
   26.755      534
   26.770      425
   26.785      321
   26.800      284
   26.815      260
   26.830      224
   26.845      195
   26.860      200
   26.875      198
   26.890      221
   26.905      214
   26.920      217
   26.935      232
   26.950      235
   26.965      209
   26.980      222
   26.995      209
   27.010      175
   27.025      169
   27.040      176
   27.055      164
   27.070      161
   27.085      177
   27.100      189
   27.115      202
   27.130      198
   27.145      178
   27.160      201
   27.175      228
   27.190      251
   27.205      287
   27.220      347
   27.235      357
   27.250      420
   27.265      439
   27.280      433
   27.295      436
   27.310      470
   27.325      445
   27.340      436
   27.355      430
   27.370      432
   27.385      431
   27.400      462
   27.415      482
   27.430      430
   27.445      422
   27.460      379
   27.475      335
   27.490      271
   27.505      238
   27.520      234
   27.535      256
   27.550      250
   27.565      249
   27.580      275
   27.595      298
   27.610      322
   27.625      271
   27.640      282
   27.655      267
   27.670      250
   27.685      287
   27.700      233
   27.715      185
   27.730      176
   27.745      165
   27.760      178
   27.775      155
   27.790      143
   27.805      165
   27.820      204
   27.835      197
   27.850      254
   27.865      270
   27.880      300
   27.895      312
   27.910      310
   27.925      269
   27.940      251
   27.955      257
   27.970      227
   27.985      261
   28.000      253
   28.015      241
   28.030      255
   28.045      290
   28.060      322
   28.075      290
   28.090      274
   28.105      283
   28.120      280
   28.135      242
   28.150      235
   28.165      213
   28.180      226
   28.195      203
   28.210      176
   28.225      159
   28.240      167
   28.255      165
   28.270      146
   28.285      157
   28.300      143
   28.315      149
   28.330      166
   28.345      159
   28.360      181
   28.375      187
   28.390      190
   28.405      198
   28.420      220
   28.435      242
   28.450      255
   28.465      243
   28.480      228
   28.495      207
   28.510      184
   28.525      184
   28.540      172
   28.555      205
   28.570      237
   28.585      271
   28.600      291
   28.615      288
   28.630      311
   28.645      315
   28.660      330
   28.675      284
   28.690      266
   28.705      273
   28.720      288
   28.735      269
   28.750      248
   28.765      253
   28.780      259
   28.795      248
   28.810      280
   28.825      308
   28.840      276
   28.855      247
   28.870      240
   28.885      229
   28.900      198
   28.915      205
   28.930      206
   28.945      199
   28.960      202
   28.975      209
   28.990      194
   29.005      212
   29.020      215
   29.035      202
   29.050      172
   29.065      167
   29.080      168
   29.095      173
   29.110      139
   29.125      142
   29.140      167
   29.155      179
   29.170      209
   29.185      224
   29.200      216
   29.215      226
   29.230      241
   29.245      237
   29.260      272
   29.275      257
   29.290      267
   29.305      282
   29.320      258
   29.335      312
   29.350      370
   29.365      408
   29.380      432
   29.395      408
   29.410      382
   29.425      335
   29.440      302
   29.455      263
   29.470      246
   29.485      258
   29.500      260
   29.515      251
   29.530      215
   29.545      228
   29.560      201
   29.575      243
   29.590      209
   29.605      220
   29.620      232
   29.635      221
   29.650      191
   29.665      185
   29.680      180
   29.695      154
   29.710      176
   29.725      179
   29.740      176
   29.755      178
   29.770      174
   29.785      207
   29.800      190
   29.815      205
   29.830      205
   29.845      189
   29.860      180
   29.875      182
   29.890      193
   29.905      161
   29.920      162
   29.935      175
   29.950      168
   29.965      183
   29.980      182
   29.995      182
   30.010      168
   30.025      168
   30.040      168
   30.055      186
   30.070      184
   30.085      205
   30.100      203
   30.115      196
   30.130      160
   30.145      163
   30.160      161
   30.175      197
   30.190      188
   30.205      183
   30.220      179
   30.235      193
   30.250      199
   30.265      235
   30.280      232
   30.295      257
   30.310      289
   30.325      323
   30.340      299
   30.355      274
   30.370      267
   30.385      216
   30.400      174
   30.415      165
   30.430      146
   30.445      167
   30.460      146
   30.475      142
   30.490      144
   30.505      149
   30.520      150
   30.535      145
   30.550      147
   30.565      159
   30.580      166
   30.595      199
   30.610      187
   30.625      224
   30.640      270
   30.655      280
   30.670      291
   30.685      314
   30.700      283
   30.715      267
   30.730      290
   30.745      271
   30.760      254
   30.775      236
   30.790      235
   30.805      223
   30.820      229
   30.835      227
   30.850      224
   30.865      204
   30.880      194
   30.895      206
   30.910      190
   30.925      172
   30.940      166
   30.955      178
   30.970      172
   30.985      205
   31.000      197
   31.015      206
   31.030      228
   31.045      250
   31.060      261
   31.075      264
   31.090      259
   31.105      244
   31.120      235
   31.135      216
   31.150      200
   31.165      192
   31.180      198
   31.195      219
   31.210      189
   31.225      237
   31.240      244
   31.255      284
   31.270      306
   31.285      300
   31.300      283
   31.315      235
   31.330      236
   31.345      218
   31.360      248
   31.375      229
   31.390      243
   31.405      272
   31.420      292
   31.435      279
   31.450      277
   31.465      291
   31.480      272
   31.495      256
   31.510      248
   31.525      279
   31.540      324
   31.555      397
   31.570      424
   31.585      462
   31.600      455
   31.615      418
   31.630      335
   31.645      285
   31.660      278
   31.675      283
   31.690      282
   31.705      284
   31.720      260
   31.735      266
   31.750      236
   31.765      275
   31.780      258
   31.795      284
   31.810      276
   31.825      247
   31.840      267
   31.855      246
   31.870      210
   31.885      203
   31.900      159
   31.915      145
   31.930      161
   31.945      176
   31.960      150
   31.975      140
   31.990      144
   32.005      155
   32.020      160
   32.035      167
   32.050      175
   32.065      160
   32.080      162
   32.095      183
   32.110      190
   32.125      179
   32.140      168
   32.155      158
   32.170      158
   32.185      154
   32.200      167
   32.215      151
   32.230      138
   32.245      147
   32.260      146
   32.275      144
   32.290      157
   32.305      160
   32.320      178
   32.335      154
   32.350      130
   32.365      151
   32.380      149
   32.395      151
   32.410      145
   32.425      155
   32.440      151
   32.455      155
   32.470      153
   32.485      162
   32.500      160
   32.515      147
   32.530      161
   32.545      166
   32.560      172
   32.575      204
   32.590      232
   32.605      277
   32.620      305
   32.635      343
   32.650      358
   32.665      414
   32.680      420
   32.695      378
   32.710      359
   32.725      304
   32.740      248
   32.755      217
   32.770      191
   32.785      187
   32.800      172
   32.815      173
   32.830      170
   32.845      207
   32.860      190
   32.875      188
   32.890      207
   32.905      186
   32.920      189
   32.935      195
   32.950      184
   32.965      189
   32.980      190
   32.995      222
   33.010      225
   33.025      214
   33.040      229
   33.055      239
   33.070      240
   33.085      246
   33.100      252
   33.115      272
   33.130      293
   33.145      337
   33.160      375
   33.175      352
   33.190      341
   33.205      324
   33.220      312
   33.235      312
   33.250      292
   33.265      288
   33.280      297
   33.295      288
   33.310      258
   33.325      262
   33.340      235
   33.355      220
   33.370      198
   33.385      197
   33.400      198
   33.415      192
   33.430      214
   33.445      247
   33.460      237
   33.475      324
   33.490      353
   33.505      340
   33.520      386
   33.535      353
   33.550      288
   33.565      261
   33.580      223
   33.595      218
   33.610      249
   33.625      238
   33.640      245
   33.655      279
   33.670      308
   33.685      276
   33.700      248
   33.715      236
   33.730      225
   33.745      232
   33.760      222
   33.775      185
   33.790      185
   33.805      167
   33.820      168
   33.835      174
   33.850      172
   33.865      170
   33.880      177
   33.895      164
   33.910      164
   33.925      163
   33.940      158
   33.955      145
   33.970      138
   33.985      148
   34.000      163
   34.015      133
   34.030      138
   34.045      144
   34.060      172
   34.075      207
   34.090      198
   34.105      210
   34.120      244
   34.135      234
   34.150      250
   34.165      262
   34.180      258
   34.195      247
   34.210      233
   34.225      233
   34.240      225
   34.255      203
   34.270      194
   34.285      178
   34.300      166
   34.315      162
   34.330      176
   34.345      165
   34.360      178
   34.375      207
   34.390      212
   34.405      216
   34.420      224
   34.435      219
   34.450      175
   34.465      178
   34.480      179
   34.495      193
   34.510      205
   34.525      199
   34.540      193
   34.555      183
   34.570      180
   34.585      180
   34.600      207
   34.615      200
   34.630      212
   34.645      206
   34.660      210
   34.675      203
   34.690      208
   34.705      210
   34.720      203
   34.735      204
   34.750      219
   34.765      246
   34.780      251
   34.795      238
   34.810      252
   34.825      239
   34.840      239
   34.855      239
   34.870      240
   34.885      246
   34.900      235
   34.915      217
   34.930      250
   34.945      277
   34.960      295
   34.975      325
   34.990      330
   35.005      350
   35.020      350
   35.035      340
   35.050      388
   35.065      419
   35.080      424
   35.095      427
   35.110      416
   35.125      403
   35.140      383
   35.155      377
   35.170      375
   35.185      366
   35.200      367
   35.215      395
   35.230      407
   35.245      425
   35.260      413
   35.275      411
   35.290      413
   35.305      420
   35.320      388
   35.335      371
   35.350      333
   35.365      307
   35.380      268
   35.395      263
   35.410      225
   35.425      202
   35.440      180
   35.455      170
   35.470      169
   35.485      156
   35.500      156
   35.515      146
   35.530      137
   35.545      159
   35.560      141
   35.575      177
   35.590      179
   35.605      171
   35.620      176
   35.635      173
   35.650      155
   35.665      154
   35.680      156
   35.695      178
   35.710      161
   35.725      153
   35.740      140
   35.755      182
   35.770      185
   35.785      180
   35.800      166
   35.815      161
   35.830      194
   35.845      167
   35.860      170
   35.875      175
   35.890      213
   35.905      241
   35.920      245
   35.935      240
   35.950      254
   35.965      239
   35.980      184
   35.995      160
   36.010      164
   36.025      153
   36.040      149
   36.055      171
   36.070      171
   36.085      159
   36.100      156
   36.115      124
   36.130      134
   36.145      118
   36.160      134
   36.175      163
   36.190      145
   36.205      146
   36.220      149
   36.235      147
   36.250      154
   36.265      146
   36.280      160
   36.295      158
   36.310      166
   36.325      156
   36.340      151
   36.355      181
   36.370      175
   36.385      188
   36.400      209
   36.415      202
   36.430      205
   36.445      177
   36.460      181
   36.475      158
   36.490      183
   36.505      168
   36.520      154
   36.535      155
   36.550      142
   36.565      164
   36.580      158
   36.595      175
   36.610      155
   36.625      173
   36.640      161
   36.655      145
   36.670      162
   36.685      168
   36.700      175
   36.715      192
   36.730      185
   36.745      215
   36.760      228
   36.775      180
   36.790      170
   36.805      170
   36.820      183
   36.835      170
   36.850      187
   36.865      195
   36.880      191
   36.895      202
   36.910      194
   36.925      201
   36.940      196
   36.955      223
   36.970      216
   36.985      192
   37.000      178
   37.015      179
   37.030      157
   37.045      142
   37.060      130
   37.075      142
   37.090      141
   37.105      141
   37.120      123
   37.135      139
   37.150      150
   37.165      148
   37.180      138
   37.195      149
   37.210      133
   37.225      127
   37.240      128
   37.255      124
   37.270      143
   37.285      133
   37.300      124
   37.315      153
   37.330      160
   37.345      150
   37.360      164
   37.375      147
   37.390      161
   37.405      146
   37.420      169
   37.435      167
   37.450      151
   37.465      163
   37.480      181
   37.495      172
   37.510      173
   37.525      164
   37.540      160
   37.555      170
   37.570      171
   37.585      174
   37.600      179
   37.615      191
   37.630      212
   37.645      207
   37.660      189
   37.675      186
   37.690      190
   37.705      160
   37.720      156
   37.735      140
   37.750      137
   37.765      155
   37.780      164
   37.795      157
   37.810      160
   37.825      171
   37.840      168
   37.855      161
   37.870      159
   37.885      144
   37.900      135
   37.915      135
   37.930      134
   37.945      148
   37.960      155
   37.975      186
   37.990      182
   38.005      196
   38.020      240
   38.035      242
   38.050      248
   38.065      242
   38.080      237
   38.095      212
   38.110      208
   38.125      208
   38.140      183
   38.155      178
   38.170      180
   38.185      188
   38.200      193
   38.215      180
   38.230      179
   38.245      195
   38.260      208
   38.275      189
   38.290      178
   38.305      172
   38.320      173
   38.335      185
   38.350      176
   38.365      163
   38.380      164
   38.395      150
   38.410      156
   38.425      158
   38.440      171
   38.455      168
   38.470      186
   38.485      174
   38.500      178
   38.515      209
   38.530      221
   38.545      184
   38.560      177
   38.575      172
   38.590      161
   38.605      164
   38.620      186
   38.635      192
   38.650      180
   38.665      164
   38.680      182
   38.695      189
   38.710      148
   38.725      152
   38.740      150
   38.755      150
   38.770      145
   38.785      140
   38.800      143
   38.815      146
   38.830      152
   38.845      151
   38.860      137
   38.875      141
   38.890      145
   38.905      131
   38.920      137
   38.935      159
   38.950      140
   38.965      141
   38.980      129
   38.995      133
   39.010      113
   39.025      118
   39.040      117
   39.055      134
   39.070      127
   39.085      141
   39.100      140
   39.115      137
   39.130      150
   39.145      141
   39.160      134
   39.175      123
   39.190      119
   39.205      138
   39.220      120
   39.235      121
   39.250      134
   39.265      146
   39.280      138
   39.295      138
   39.310      150
   39.325      163
   39.340      160
   39.355      140
   39.370      181
   39.385      182
   39.400      165
   39.415      162
   39.430      182
   39.445      183
   39.460      198
   39.475      208
   39.490      189
   39.505      181
   39.520      165
   39.535      162
   39.550      175
   39.565      152
   39.580      153
   39.595      157
   39.610      148
   39.625      130
   39.640      153
   39.655      138
   39.670      131
   39.685      149
   39.700      139
   39.715      146
   39.730      153
   39.745      159
   39.760      150
   39.775      141
   39.790      145
   39.805      143
   39.820      123
   39.835      132
   39.850      137
   39.865      149
   39.880      134
   39.895      144
   39.910      158
   39.925      168
   39.940      165
   39.955      186
   39.970      176
   39.985      172
   40.000      184
   40.015      209
   40.030      205
   40.045      210
   40.060      224
   40.075      207
   40.090      234
   40.105      242
   40.120      247
   40.135      264
   40.150      225
   40.165      201
   40.180      195
   40.195      173
   40.210      171
   40.225      170
   40.240      176
   40.255      172
   40.270      174
   40.285      189
   40.300      178
   40.315      189
   40.330      201
   40.345      203
   40.360      211
   40.375      210
   40.390      191
   40.405      221
   40.420      211
   40.435      192
   40.450      243
   40.465      223
   40.480      231
   40.495      241
   40.510      203
   40.525      190
   40.540      175
   40.555      158
   40.570      150
   40.585      152
   40.600      148
   40.615      155
   40.630      160
   40.645      141
   40.660      156
   40.675      140
   40.690      139
   40.705      141
   40.720      142
   40.735      144
   40.750      145
   40.765      134
   40.780      123
   40.795      126
   40.810      130
   40.825      130
   40.840      149
   40.855      129
   40.870      126
   40.885      130
   40.900      120
   40.915      123
   40.930      113
   40.945      110
   40.960      112
   40.975      113
   40.990      120
   41.005      129
   41.020      112
   41.035      113
   41.050      118
   41.065      131
   41.080      122
   41.095      119
   41.110      129
   41.125      137
   41.140      131
   41.155      134
   41.170      133
   41.185      150
   41.200      145
   41.215      147
   41.230      136
   41.245      132
   41.260      141
   41.275      131
   41.290      152
   41.305      171
   41.320      166
   41.335      146
   41.350      150
   41.365      146
   41.380      147
   41.395      127
   41.410      133
   41.425      142
   41.440      136
   41.455      153
   41.470      149
   41.485      125
   41.500      132
   41.515      137
   41.530      139
   41.545      131
   41.560      141
   41.575      143
   41.590      152
   41.605      169
   41.620      174
   41.635      156
   41.650      151
   41.665      165
   41.680      167
   41.695      173
   41.710      170
   41.725      178
   41.740      174
   41.755      176
   41.770      157
   41.785      155
   41.800      147
   41.815      144
   41.830      139
   41.845      138
   41.860      148
   41.875      149
   41.890      147
   41.905      140
   41.920      144
   41.935      164
   41.950      178
   41.965      149
   41.980      144
   41.995      149
   42.010      159
   42.025      148
   42.040      166
   42.055      155
   42.070      149
   42.085      153
   42.100      146
   42.115      152
   42.130      152
   42.145      137
   42.160      129
   42.175      147
   42.190      123
   42.205      135
   42.220      131
   42.235      142
   42.250      146
   42.265      147
   42.280      146
   42.295      112
   42.310      142
   42.325      119
   42.340      124
   42.355      154
   42.370      155
   42.385      156
   42.400      146
   42.415      154
   42.430      160
   42.445      150
   42.460      137
   42.475      132
   42.490      138
   42.505      132
   42.520      125
   42.535      117
   42.550      121
   42.565      122
   42.580      129
   42.595      161
   42.610      155
   42.625      146
   42.640      151
   42.655      163
   42.670      153
   42.685      150
   42.700      157
   42.715      153
   42.730      164
   42.745      165
   42.760      176
   42.775      159
   42.790      155
   42.805      158
   42.820      136
   42.835      136
   42.850      157
   42.865      126
   42.880      116
   42.895      140
   42.910      127
   42.925      123
   42.940      123
   42.955      124
   42.970      121
   42.985      116
   43.000      123
   43.015      132
   43.030      113
   43.045      124
   43.060      120
   43.075      121
   43.090      116
   43.105      119
   43.120      108
   43.135      136
   43.150      125
   43.165      119
   43.180      136
   43.195      130
   43.210      134
   43.225      134
   43.240      128
   43.255      123
   43.270      155
   43.285      131
   43.300      145
   43.315      150
   43.330      135
   43.345      148
   43.360      135
   43.375      131
   43.390      128
   43.405      124
   43.420      127
   43.435      122
   43.450      145
   43.465      135
   43.480      156
   43.495      141
   43.510      156
   43.525      148
   43.540      153
   43.555      134
   43.570      141
   43.585      166
   43.600      149
   43.615      138
   43.630      147
   43.645      162
   43.660      138
   43.675      150
   43.690      142
   43.705      133
   43.720      141
   43.735      155
   43.750      151
   43.765      143
   43.780      159
   43.795      158
   43.810      155
   43.825      175
   43.840      181
   43.855      175
   43.870      176
   43.885      153
   43.900      152
   43.915      149
   43.930      133
   43.945      124
   43.960      138
   43.975      135
   43.990      143
   44.005      157
   44.020      161
   44.035      154
   44.050      169
   44.065      173
   44.080      173
   44.095      172
   44.110      158
   44.125      160
   44.140      171
   44.155      157
   44.170      146
   44.185      140
   44.200      144
   44.215      143
   44.230      144
   44.245      168
   44.260      182
   44.275      211
   44.290      206
   44.305      206
   44.320      197
   44.335      187
   44.350      177
   44.365      166
   44.380      155
   44.395      135
   44.410      134
   44.425      145
   44.440      154
   44.455      152
   44.470      171
   44.485      164
   44.500      150
   44.515      141
   44.530      163
   44.545      183
   44.560      186
   44.575      194
   44.590      196
   44.605      199
   44.620      210
   44.635      224
   44.650      230
   44.665      226
   44.680      246
   44.695      226
   44.710      230
   44.725      191
   44.740      193
   44.755      161
   44.770      170
   44.785      193
   44.800      175
   44.815      157
   44.830      197
   44.845      208
   44.860      215
   44.875      188
   44.890      158
   44.905      184
   44.920      171
   44.935      148
   44.950      142
   44.965      141
   44.980      134
   44.995      148
   45.010      143
   45.025      155
   45.040      177
   45.055      161
   45.070      148
   45.085      159
   45.100      153
   45.115      181
   45.130      156
   45.145      148
   45.160      142
   45.175      148
   45.190      137
   45.205      135
   45.220      145
   45.235      138
   45.250      135
   45.265      140
   45.280      138
   45.295      129
   45.310      127
   45.325      118
   45.340      118
   45.355      110
   45.370      116
   45.385      124
   45.400      102
   45.415       98
   45.430      111
   45.445      109
   45.460      109
   45.475      127
   45.490      126
   45.505      135
   45.520      140
   45.535      128
   45.550      155
   45.565      150
   45.580      145
   45.595      137
   45.610      141
   45.625      148
   45.640      145
   45.655      157
   45.670      154
   45.685      168
   45.700      157
   45.715      175
   45.730      191
   45.745      174
   45.760      194
   45.775      168
   45.790      178
   45.805      181
   45.820      145
   45.835      133
   45.850      138
   45.865      134
   45.880      138
   45.895      140
   45.910      128
   45.925      145
   45.940      155
   45.955      145
   45.970      144
   45.985      136
