    4.000      195
    4.015      227
    4.030      217
    4.045      223
    4.060      215
    4.075      210
    4.090      196
    4.105      200
    4.120      213
    4.135      182
    4.150      199
    4.165      199
    4.180      184
    4.195      189
    4.210      222
    4.225      217
    4.240      185
    4.255      193
    4.270      194
    4.285      200
    4.300      194
    4.315      205
    4.330      193
    4.345      192
    4.360      208
    4.375      204
    4.390      198
    4.405      208
    4.420      216
    4.435      224
    4.450      189
    4.465      182
    4.480      180
    4.495      187
    4.510      186
    4.525      183
    4.540      198
    4.555      181
    4.570      208
    4.585      195
    4.600      203
    4.615      205
    4.630      210
    4.645      212
    4.660      200
    4.675      190
    4.690      193
    4.705      189
    4.720      204
    4.735      209
    4.750      182
    4.765      184
    4.780      184
    4.795      202
    4.810      204
    4.825      172
    4.840      151
    4.855      178
    4.870      175
    4.885      174
    4.900      167
    4.915      199
    4.930      200
    4.945      198
    4.960      180
    4.975      183
    4.990      192
    5.005      195
    5.020      210
    5.035      204
    5.050      189
    5.065      179
    5.080      176
    5.095      175
    5.110      175
    5.125      183
    5.140      180
    5.155      183
    5.170      187
    5.185      194
    5.200      186
    5.215      206
    5.230      193
    5.245      195
    5.260      191
    5.275      194
    5.290      173
    5.305      175
    5.320      199
    5.335      172
    5.350      167
    5.365      197
    5.380      191
    5.395      187
    5.410      194
    5.425      172
    5.440      179
    5.455      182
    5.470      186
    5.485      185
    5.500      179
    5.515      183
    5.530      163
    5.545      170
    5.560      195
    5.575      176
    5.590      173
    5.605      184
    5.620      187
    5.635      186
    5.650      189
    5.665      196
    5.680      180
    5.695      205
    5.710      205
    5.725      176
    5.740      181
    5.755      192
    5.770      184
    5.785      194
    5.800      177
    5.815      173
    5.830      162
    5.845      204
    5.860      190
    5.875      176
    5.890      180
    5.905      179
    5.920      186
    5.935      179
    5.950      190
    5.965      190
    5.980      190
    5.995      177
    6.010      188
    6.025      196
    6.040      184
    6.055      176
    6.070      175
    6.085      176
    6.100      182
    6.115      182
    6.130      196
    6.145      216
    6.160      169
    6.175      184
    6.190      206
    6.205      188
    6.220      198
    6.235      222
    6.250      218
    6.265      186
    6.280      222
    6.295      222
    6.310      221
    6.325      218
    6.340      236
    6.355      262
    6.370      244
    6.385      271
    6.400      237
    6.415      261
    6.430      287
    6.445      313
    6.460      309
    6.475      327
    6.490      387
    6.505      413
    6.520      426
    6.535      408
    6.550      417
    6.565      430
    6.580      425
    6.595      338
    6.610      241
    6.625      197
    6.640      180
    6.655      193
    6.670      183
    6.685      196
    6.700      176
    6.715      190
    6.730      187
    6.745      171
    6.760      162
    6.775      201
    6.790      204
    6.805      176
    6.820      182
    6.835      177
    6.850      182
    6.865      180
    6.880      188
    6.895      183
    6.910      174
    6.925      191
    6.940      175
    6.955      192
    6.970      198
    6.985      223
    7.000      214
    7.015      218
    7.030      203
    7.045      266
    7.060      261
    7.075      278
    7.090      307
    7.105      269
    7.120      216
    7.135      205
    7.150      182
    7.165      161
    7.180      163
    7.195      194
    7.210      199
    7.225      180
    7.240      174
    7.255      177
    7.270      165
    7.285      185
    7.300      194
    7.315      179
    7.330      185
    7.345      166
    7.360      179
    7.375      195
    7.390      192
    7.405      189
    7.420      169
    7.435      191
    7.450      205
    7.465      198
    7.480      198
    7.495      210
    7.510      223
    7.525      228
    7.540      233
    7.555      236
    7.570      223
    7.585      230
    7.600      195
    7.615      174
    7.630      159
    7.645      169
    7.660      178
    7.675      180
    7.690      176
    7.705      168
    7.720      182
    7.735      155
    7.750      166
    7.765      178
    7.780      190
    7.795      186
    7.810      161
    7.825      174
    7.840      188
    7.855      174
    7.870      175
    7.885      186
    7.900      194
    7.915      178
    7.930      171
    7.945      166
    7.960      178
    7.975      182
    7.990      174
    8.005      182
    8.020      188
    8.035      163
    8.050      167
    8.065      175
    8.080      161
    8.095      166
    8.110      164
    8.125      166
    8.140      173
    8.155      176
    8.170      176
    8.185      161
    8.200      161
    8.215      163
    8.230      157
    8.245      164
    8.260      172
    8.275      188
    8.290      177
    8.305      190
    8.320      192
    8.335      188
    8.350      180
    8.365      168
    8.380      193
    8.395      185
    8.410      172
    8.425      199
    8.440      195
    8.455      172
    8.470      192
    8.485      184
    8.500      181
    8.515      173
    8.530      202
    8.545      163
    8.560      160
    8.575      188
    8.590      180
    8.605      170
    8.620      184
    8.635      187
    8.650      187
    8.665      173
    8.680      180
    8.695      165
    8.710      158
    8.725      220
    8.740      194
    8.755      196
    8.770      190
    8.785      190
    8.800      185
    8.815      180
    8.830      197
    8.845      169
    8.860      175
    8.875      194
    8.890      174
    8.905      197
    8.920      191
    8.935      205
    8.950      191
    8.965      194
    8.980      182
    8.995      157
    9.010      209
    9.025      180
    9.040      205
    9.055      196
    9.070      208
    9.085      186
    9.100      191
    9.115      191
    9.130      202
    9.145      188
    9.160      194
    9.175      184
    9.190      185
    9.205      184
    9.220      171
    9.235      206
    9.250      183
    9.265      175
    9.280      201
    9.295      199
    9.310      205
    9.325      201
    9.340      186
    9.355      204
    9.370      193
    9.385      199
    9.400      187
    9.415      195
    9.430      186
    9.445      188
    9.460      191
    9.475      199
    9.490      187
    9.505      195
    9.520      217
    9.535      206
    9.550      189
    9.565      181
    9.580      195
    9.595      199
    9.610      210
    9.625      211
    9.640      207
    9.655      229
    9.670      218
    9.685      213
    9.700      200
    9.715      196
    9.730      176
    9.745      198
    9.760      195
    9.775      197
    9.790      214
    9.805      200
    9.820      194
    9.835      198
    9.850      198
    9.865      200
    9.880      213
    9.895      185
    9.910      199
    9.925      193
    9.940      185
    9.955      185
    9.970      183
    9.985      197
   10.000      182
   10.015      226
   10.030      216
   10.045      196
   10.060      205
   10.075      199
   10.090      219
   10.105      220
   10.120      218
   10.135      204
   10.150      222
   10.165      204
   10.180      242
   10.195      228
   10.210      239
   10.225      226
   10.240      255
   10.255      249
   10.270      275
   10.285      307
   10.300      307
   10.315      333
   10.330      354
   10.345      351
   10.360      308
   10.375      236
   10.390      203
   10.405      209
   10.420      205
   10.435      185
   10.450      202
   10.465      189
   10.480      191
   10.495      194
   10.510      210
   10.525      188
   10.540      183
   10.555      213
   10.570      218
   10.585      205
   10.600      202
   10.615      233
   10.630      221
   10.645      235
   10.660      218
   10.675      244
   10.690      228
   10.705      223
   10.720      251
   10.735      222
   10.750      227
   10.765      204
   10.780      196
   10.795      213
   10.810      190
   10.825      192
   10.840      210
   10.855      203
   10.870      205
   10.885      225
   10.900      236
   10.915      240
   10.930      246
   10.945      211
   10.960      233
   10.975      240
   10.990      231
   11.005      249
   11.020      271
   11.035      287
   11.050      295
   11.065      320
   11.080      366
   11.095      358
   11.110      318
   11.125      235
   11.140      208
   11.155      202
   11.170      220
   11.185      226
   11.200      224
   11.215      232
   11.230      222
   11.245      241
   11.260      250
   11.275      262
   11.290      246
   11.305      254
   11.320      220
   11.335      185
   11.350      189
   11.365      185
   11.380      173
   11.395      175
   11.410      172
   11.425      198
   11.440      204
   11.455      184
   11.470      196
   11.485      197
   11.500      170
   11.515      185
   11.530      181
   11.545      172
   11.560      204
   11.575      217
   11.590      197
   11.605      208
   11.620      227
   11.635      228
   11.650      224
   11.665      234
   11.680      271
   11.695      265
   11.710      302
   11.725      302
   11.740      263
   11.755      235
   11.770      210
   11.785      223
   11.800      240
   11.815      211
   11.830      218
   11.845      240
   11.860      261
   11.875      243
   11.890      258
   11.905      284
   11.920      251
   11.935      244
   11.950      233
   11.965      194
   11.980      181
   11.995      213
   12.010      219
   12.025      205
   12.040      222
   12.055      203
   12.070      192
   12.085      188
   12.100      213
   12.115      230
   12.130      221
   12.145      191
   12.160      192
   12.175      196
   12.190      204
   12.205      207
   12.220      225
   12.235      233
   12.250      209
   12.265      231
   12.280      259
   12.295      258
   12.310      271
   12.325      305
   12.340      347
   12.355      411
   12.370      466
   12.385      548
   12.400      622
   12.415      703
   12.430      855
   12.445     1040
   12.460     1178
   12.475     1529
   12.490     1815
   12.505     2021
   12.520     1823
   12.535     1462
   12.550     1326
   12.565     1368
   12.580     1458
   12.595     1357
   12.610     1097
   12.625      738
   12.640      497
   12.655      369
   12.670      302
   12.685      272
   12.700      260
   12.715      255
   12.730      265
   12.745      305
   12.760      296
   12.775      306
   12.790      292
   12.805      331
   12.820      366
   12.835      410
   12.850      486
   12.865      580
   12.880      652
   12.895      613
   12.910      505
   12.925      504
   12.940      510
   12.955      582
   12.970      675
   12.985      796
   13.000      980
   13.015     1207
   13.030     1434
   13.045     1892
   13.060     2275
   13.075     2220
   13.090     1961
   13.105     1720
   13.120     1814
   13.135     2006
   13.150     2566
   13.165     3260
   13.180     3756
   13.195     3048
   13.210     1893
   13.225      971
   13.240      643
   13.255      498
   13.270      435
   13.285      403
   13.300      436
   13.315      425
   13.330      459
   13.345      510
   13.360      570
   13.375      708
   13.390      754
   13.405      844
   13.420      885
   13.435      969
   13.450      874
   13.465      708
   13.480      468
   13.495      351
   13.510      282
   13.525      273
   13.540      274
   13.555      286
   13.570      285
   13.585      299
   13.600      307
   13.615      308
   13.630      341
   13.645      365
   13.660      419
   13.675      481
   13.690      459
   13.705      398
   13.720      273
   13.735      221
   13.750      229
   13.765      222
   13.780      219
   13.795      196
   13.810      196
   13.825      204
   13.840      193
   13.855      206
   13.870      193
   13.885      206
   13.900      205
   13.915      198
   13.930      207
   13.945      215
   13.960      241
   13.975      219
   13.990      206
   14.005      223
   14.020      259
   14.035      282
   14.050      274
   14.065      303
   14.080      339
   14.095      363
   14.110      395
   14.125      475
   14.140      516
   14.155      479
   14.170      453
   14.185      432
   14.200      448
   14.215      524
   14.230      510
   14.245      466
   14.260      466
   14.275      539
   14.290      557
   14.305      643
   14.320      789
   14.335      939
   14.350      957
   14.365      694
   14.380      476
   14.395      347
   14.410      272
   14.425      218
   14.440      224
   14.455      212
   14.470      213
   14.485      207
   14.500      214
   14.515      206
   14.530      205
   14.545      204
   14.560      198
   14.575      215
   14.590      194
   14.605      180
   14.620      197
   14.635      206
   14.650      203
   14.665      224
   14.680      228
   14.695      251
   14.710      267
   14.725      279
   14.740      318
   14.755      358
   14.770      396
   14.785      486
   14.800      558
   14.815      650
   14.830      749
   14.845      876
   14.860      939
   14.875     1068
   14.890     1327
   14.905     1528
   14.920     1720
   14.935     1606
   14.950     1191
   14.965      756
   14.980      495
   14.995      389
   15.010      355
   15.025      339
   15.040      384
   15.055      367
   15.070      381
   15.085      415
   15.100      457
   15.115      539
   15.130      643
   15.145      690
   15.160      616
   15.175      547
   15.190      521
   15.205      459
   15.220      449
   15.235      371
   15.250      312
   15.265      321
   15.280      312
   15.295      311
   15.310      342
   15.325      359
   15.340      370
   15.355      417
   15.370      469
   15.385      527
   15.400      623
   15.415      695
   15.430      584
   15.445      466
   15.460      381
   15.475      349
   15.490      337
   15.505      335
   15.520      353
   15.535      397
   15.550      435
   15.565      501
   15.580      571
   15.595      638
   15.610      671
   15.625      630
   15.640      497
   15.655      387
   15.670      336
   15.685      292
   15.700      251
   15.715      238
   15.730      257
   15.745      277
   15.760      278
   15.775      302
   15.790      268
   15.805      291
   15.820      321
   15.835      380
   15.850      404
   15.865      439
   15.880      508
   15.895      562
   15.910      701
   15.925      745
   15.940      786
   15.955      835
   15.970      688
   15.985      581
   16.000      460
   16.015      390
   16.030      330
   16.045      341
   16.060      382
   16.075      423
   16.090      462
   16.105      542
   16.120      579
   16.135      616
   16.150      610
   16.165      557
   16.180      593
   16.195      674
   16.210      798
   16.225     1036
   16.240     1172
   16.255     1206
   16.270     1074
   16.285      803
   16.300      707
   16.315      686
   16.330      847
   16.345      900
   16.360      959
   16.375      930
   16.390      808
   16.405      781
   16.420      768
   16.435      734
   16.450      733
   16.465      775
   16.480      891
   16.495     1107
   16.510     1191
   16.525     1196
   16.540      996
   16.555      898
   16.570      921
   16.585      939
   16.600      923
   16.615      905
   16.630      697
   16.645      537
   16.660      459
   16.675      374
   16.690      365
   16.705      347
   16.720      336
   16.735      337
   16.750      365
   16.765      388
   16.780      430
   16.795      521
   16.810      594
   16.825      661
   16.840      607
   16.855      495
   16.870      367
   16.885      332
   16.900      312
   16.915      309
   16.930      308
   16.945      326
   16.960      354
   16.975      383
   16.990      439
   17.005      464
   17.020      489
   17.035      518
   17.050      448
   17.065      397
   17.080      350
   17.095      344
   17.110      355
   17.125      355
   17.140      361
   17.155      319
   17.170      315
   17.185      320
   17.200      338
   17.215      370
   17.230      396
   17.245      464
   17.260      527
   17.275      576
   17.290      594
   17.305      509
   17.320      391
   17.335      285
   17.350      251
   17.365      238
   17.380      236
   17.395      260
   17.410      282
   17.425      292
   17.440      311
   17.455      329
   17.470      355
   17.485      385
   17.500      339
   17.515      323
   17.530      353
   17.545      380
   17.560      384
   17.575      352
   17.590      296
   17.605      277
   17.620      261
   17.635      247
   17.650      234
   17.665      239
   17.680      226
   17.695      220
   17.710      218
   17.725      205
   17.740      208
   17.755      210
   17.770      192
   17.785      188
   17.800      189
   17.815      208
   17.830      175
   17.845      182
   17.860      184
   17.875      176
   17.890      181
   17.905      189
   17.920      209
   17.935      214
   17.950      240
   17.965      225
   17.980      262
   17.995      299
   18.010      306
   18.025      334
   18.040      362
   18.055      411
   18.070      428
   18.085      441
   18.100      425
   18.115      333
   18.130      289
   18.145      250
   18.160      224
   18.175      209
   18.190      213
   18.205      233
   18.220      229
   18.235      254
   18.250      252
   18.265      274
   18.280      301
   18.295      280
   18.310      345
   18.325      444
   18.340      506
   18.355      563
   18.370      521
   18.385      539
   18.400      537
   18.415      536
   18.430      592
   18.445      666
   18.460      663
   18.475      663
   18.490      618
   18.505      574
   18.520      526
   18.535      464
   18.550      394
   18.565      376
   18.580      385
   18.595      390
   18.610      458
   18.625      451
   18.640      484
   18.655      562
   18.670      593
   18.685      539
   18.700      465
   18.715      383
   18.730      351
   18.745      364
   18.760      379
   18.775      347
   18.790      304
   18.805      252
   18.820      244
   18.835      233
   18.850      216
   18.865      218
   18.880      204
   18.895      224
   18.910      205
   18.925      205
   18.940      192
   18.955      223
   18.970      192
   18.985      215
   19.000      187
   19.015      223
   19.030      205
   19.045      173
   19.060      205
   19.075      175
   19.090      168
   19.105      188
   19.120      174
   19.135      181
   19.150      187
   19.165      195
   19.180      185
   19.195      184
   19.210      177
   19.225      192
   19.240      203
   19.255      217
   19.270      247
   19.285      261
   19.300      265
   19.315      275
   19.330      313
   19.345      331
   19.360      374
   19.375      405
   19.390      443
   19.405      416
   19.420      374
   19.435      325
   19.450      322
   19.465      272
   19.480      263
   19.495      259
   19.510      285
   19.525      286
   19.540      300
   19.555      333
   19.570      405
   19.585      467
   19.600      567
   19.615      658
   19.630      783
   19.645      928
   19.660     1081
   19.675     1071
   19.690      919
   19.705      755
   19.720      626
   19.735      645
   19.750      711
   19.765      794
   19.780      825
   19.795      749
   19.810      643
   19.825      621
   19.840      521
   19.855      426
   19.870      341
   19.885      310
   19.900      289
   19.915      279
   19.930      280
   19.945      306
   19.960      350
   19.975      358
   19.990      326
   20.005      295
   20.020      256
   20.035      237
   20.050      213
   20.065      209
   20.080      211
   20.095      210
   20.110      190
   20.125      180
   20.140      165
   20.155      184
   20.170      192
   20.185      178
   20.200      176
   20.215      185
   20.230      177
   20.245      213
   20.260      194
   20.275      184
   20.290      184
   20.305      201
   20.320      206
   20.335      229
   20.350      204
   20.365      206
   20.380      194
   20.395      218
   20.410      227
   20.425      227
   20.440      229
   20.455      244
   20.470      298
   20.485      345
   20.500      375
   20.515      414
   20.530      420
   20.545      417
   20.560      415
   20.575      381
   20.590      380
   20.605      437
   20.620      449
   20.635      408
   20.650      360
   20.665      307
   20.680      242
   20.695      250
   20.710      249
   20.725      241
   20.740      286
   20.755      249
   20.770      249
   20.785      267
   20.800      235
   20.815      217
   20.830      222
   20.845      203
   20.860      229
   20.875      249
   20.890      234
   20.905      261
   20.920      223
   20.935      245
   20.950      260
   20.965      257
   20.980      276
   20.995      294
   21.010      258
   21.025      244
   21.040      200
   21.055      197
   21.070      183
   21.085      177
   21.100      192
   21.115      189
   21.130      199
   21.145      197
   21.160      188
   21.175      208
   21.190      196
   21.205      228
   21.220      254
   21.235      259
   21.250      301
   21.265      323
   21.280      389
   21.295      434
   21.310      519
   21.325      621
   21.340      671
   21.355      662
   21.370      569
   21.385      478
   21.400      479
   21.415      468
   21.430      498
   21.445      593
   21.460      693
   21.475      924
   21.490     1091
   21.505     1390
   21.520     1642
   21.535     1617
   21.550     1364
   21.565      968
   21.580      683
   21.595      550
   21.610      531
   21.625      486
   21.640      432
   21.655      372
   21.670      328
   21.685      343
   21.700      281
   21.715      274
   21.730      233
   21.745      221
   21.760      194
   21.775      194
   21.790      213
   21.805      184
   21.820      213
   21.835      211
   21.850      227
   21.865      207
   21.880      211
   21.895      211
   21.910      213
   21.925      211
   21.940      241
   21.955      211
   21.970      218
   21.985      229
   22.000      248
   22.015      234
   22.030      262
   22.045      284
   22.060      282
   22.075      302
   22.090      337
   22.105      376
   22.120      395
   22.135      362
   22.150      302
   22.165      255
   22.180      246
   22.195      231
   22.210      260
   22.225      235
   22.240      260
   22.255      312
   22.270      326
   22.285      386
   22.300      379
   22.315      432
   22.330      408
   22.345      475
   22.360      520
   22.375      440
   22.390      381
   22.405      333
   22.420      323
   22.435      328
   22.450      358
   22.465      396
   22.480      427
   22.495      486
   22.510      584
   22.525      606
   22.540      641
   22.555      661
   22.570      635
   22.585      540
   22.600      495
   22.615      469
   22.630      426
   22.645      346
   22.660      299
   22.675      304
   22.690      290
   22.705      276
   22.720      297
   22.735      315
   22.750      358
   22.765      425
   22.780      416
   22.795      416
   22.810      403
   22.825      348
   22.840      329
   22.855      346
   22.870      352
   22.885      404
   22.900      434
   22.915      408
   22.930      375
   22.945      305
   22.960      272
   22.975      246
   22.990      243
   23.005      225
   23.020      232
   23.035      234
   23.050      221
   23.065      248
   23.080      259
   23.095      276
   23.110      276
   23.125      254
   23.140      230
   23.155      206
   23.170      191
   23.185      185
   23.200      166
   23.215      170
   23.230      178
   23.245      170
   23.260      164
   23.275      182
   23.290      183
   23.305      173
   23.320      172
   23.335      195
   23.350      181
   23.365      173
   23.380      162
   23.395      176
   23.410      158
   23.425      174
   23.440      178
   23.455      170
   23.470      182
   23.485      176
   23.500      176
   23.515      181
   23.530      196
   23.545      196
   23.560      182
   23.575      191
   23.590      191
   23.605      201
   23.620      228
   23.635      234
   23.650      244
   23.665      267
   23.680      287
   23.695      294
   23.710      254
   23.725      213
   23.740      229
   23.755      201
   23.770      205
   23.785      222
   23.800      190
   23.815      191
   23.830      220
   23.845      203
   23.860      229
   23.875      225
   23.890      280
   23.905      332
   23.920      347
   23.935      346
   23.950      375
   23.965      363
   23.980      310
   23.995      295
   24.010      245
   24.025      233
   24.040      262
   24.055      254
   24.070      268
   24.085      257
   24.100      257
   24.115      259
   24.130      247
   24.145      293
   24.160      264
   24.175      238
   24.190      237
   24.205      215
   24.220      223
   24.235      216
   24.250      216
   24.265      211
   24.280      208
   24.295      220
   24.310      236
   24.325      234
   24.340      231
   24.355      213
   24.370      215
   24.385      208
   24.400      194
   24.415      213
   24.430      210
   24.445      214
   24.460      194
   24.475      197
   24.490      198
   24.505      182
   24.520      190
   24.535      168
   24.550      197
   24.565      210
   24.580      230
   24.595      231
   24.610      266
   24.625      294
   24.640      347
   24.655      374
   24.670      339
   24.685      300
   24.700      294
   24.715      274
   24.730      273
   24.745      260
   24.760      251
   24.775      243
   24.790      253
   24.805      264
   24.820      274
   24.835      311
   24.850      337
   24.865      337
   24.880      332
   24.895      294
   24.910      256
   24.925      235
   24.940      203
   24.955      197
   24.970      204
   24.985      195
   25.000      223
   25.015      207
   25.030      221
   25.045      252
   25.060      292
   25.075      298
   25.090      313
   25.105      292
   25.120      281
   25.135      253
   25.150      276
   25.165      272
   25.180      274
   25.195      287
   25.210      273
   25.225      299
   25.240      301
   25.255      279
   25.270      346
   25.285      406
   25.300      477
   25.315      462
   25.330      463
   25.345      494
   25.360      474
   25.375      394
   25.390      347
   25.405      290
   25.420      255
   25.435      244
   25.450      237
   25.465      260
   25.480      251
   25.495      258
   25.510      301
   25.525      301
   25.540      347
   25.555      336
   25.570      309
   25.585      261
   25.600      232
   25.615      226
   25.630      217
   25.645      200
   25.660      236
   25.675      198
   25.690      207
   25.705      206
   25.720      228
   25.735      256
   25.750      236
   25.765      231
   25.780      252
   25.795      271
   25.810      283
   25.825      275
   25.840      245
   25.855      240
   25.870      255
   25.885      232
   25.900      225
   25.915      219
   25.930      214
   25.945      209
   25.960      198
   25.975      211
   25.990      220
   26.005      223
   26.020      220
   26.035      209
   26.050      208
   26.065      185
   26.080      169
   26.095      176
   26.110      176
   26.125      161
   26.140      174
   26.155      167
   26.170      187
   26.185      179
   26.200      173
   26.215      179
   26.230      183
   26.245      204
   26.260      210
   26.275      255
   26.290      270
   26.305      312
   26.320      300
   26.335      277
   26.350      243
   26.365      219
   26.380      211
   26.395      191
   26.410      190
   26.425      201
   26.440      233
   26.455      221
   26.470      225
   26.485      259
   26.500      290
   26.515      361
   26.530      380
   26.545      414
   26.560      417
   26.575      411
   26.590      414
   26.605      414
   26.620      384
   26.635      386
   26.650      372
   26.665      325
   26.680      283
   26.695      252
   26.710      253
   26.725      224
   26.740      246
   26.755      233
   26.770      229
   26.785      237
   26.800      188
   26.815      193
   26.830      198
   26.845      222
   26.860      214
   26.875      234
   26.890      238
   26.905      218
   26.920      215
   26.935      200
   26.950      212
   26.965      201
   26.980      203
   26.995      216
   27.010      208
   27.025      202
   27.040      213
   27.055      226
   27.070      261
   27.085      255
   27.100      260
   27.115      276
   27.130      319
   27.145      329
   27.160      360
   27.175      396
   27.190      389
   27.205      374
   27.220      374
   27.235      394
   27.250      413
   27.265      401
   27.280      385
   27.295      384
   27.310      391
   27.325      353
   27.340      314
   27.355      291
   27.370      275
   27.385      251
   27.400      235
   27.415      240
   27.430      230
   27.445      244
   27.460      246
   27.475      255
   27.490      252
   27.505      242
   27.520      282
   27.535      292
   27.550      285
   27.565      257
   27.580      239
   27.595      229
   27.610      199
   27.625      206
   27.640      197
   27.655      196
   27.670      211
   27.685      235
   27.700      237
   27.715      211
   27.730      248
   27.745      265
   27.760      265
   27.775      232
   27.790      208
   27.805      229
   27.820      242
   27.835      240
   27.850      238
   27.865      222
   27.880      241
   27.895      257
   27.910      246
   27.925      257
   27.940      228
   27.955      230
   27.970      237
   27.985      260
   28.000      264
   28.015      239
   28.030      219
   28.045      209
   28.060      213
   28.075      223
   28.090      222
   28.105      213
   28.120      190
   28.135      185
   28.150      184
   28.165      171
   28.180      208
   28.195      180
   28.210      189
   28.225      191
   28.240      194
   28.255      191
   28.270      217
   28.285      231
   28.300      242
   28.315      255
   28.330      235
   28.345      232
   28.360      245
   28.375      251
   28.390      242
   28.405      246
   28.420      240
   28.435      230
   28.450      248
   28.465      269
   28.480      253
   28.495      273
   28.510      276
   28.525      268
   28.540      258
   28.555      294
   28.570      281
   28.585      250
   28.600      249
   28.615      223
   28.630      238
   28.645      220
   28.660      251
   28.675      247
   28.690      225
   28.705      228
   28.720      232
   28.735      227
   28.750      224
   28.765      228
   28.780      207
   28.795      225
   28.810      224
   28.825      206
   28.840      220
   28.855      245
   28.870      240
   28.885      235
   28.900      230
   28.915      205
   28.930      222
   28.945      223
   28.960      187
   28.975      190
   28.990      195
   29.005      205
   29.020      180
   29.035      187
   29.050      200
   29.065      203
   29.080      207
   29.095      203
   29.110      189
   29.125      194
   29.140      212
   29.155      234
   29.170      233
   29.185      238
   29.200      233
   29.215      229
   29.230      265
   29.245      303
   29.260      310
   29.275      355
   29.290      354
   29.305      334
   29.320      310
   29.335      299
   29.350      278
   29.365      269
   29.380      247
   29.395      265
   29.410      253
   29.425      263
   29.440      270
   29.455      266
   29.470      263
   29.485      247
   29.500      211
   29.515      209
   29.530      217
   29.545      204
   29.560      192
   29.575      177
   29.590      198
   29.605      215
   29.620      215
   29.635      191
   29.650      201
   29.665      188
   29.680      198
   29.695      201
   29.710      207
   29.725      199
   29.740      199
   29.755      220
   29.770      188
   29.785      165
   29.800      184
   29.815      193
   29.830      198
   29.845      207
   29.860      187
   29.875      192
   29.890      186
   29.905      175
   29.920      189
   29.935      190
   29.950      206
   29.965      179
   29.980      227
   29.995      219
   30.010      201
   30.025      201
   30.040      204
   30.055      197
   30.070      207
   30.085      212
   30.100      224
   30.115      221
   30.130      211
   30.145      231
   30.160      238
   30.175      217
   30.190      219
   30.205      208
   30.220      260
   30.235      253
   30.250      264
   30.265      260
   30.280      231
   30.295      222
   30.310      191
   30.325      193
   30.340      213
   30.355      207
   30.370      203
   30.385      183
   30.400      189
   30.415      194
   30.430      182
   30.445      190
   30.460      231
   30.475      229
   30.490      232
   30.505      235
   30.520      238
   30.535      270
   30.550      265
   30.565      279
   30.580      256
   30.595      252
   30.610      240
   30.625      229
   30.640      234
   30.655      252
   30.670      238
   30.685      244
   30.700      251
   30.715      234
   30.730      235
   30.745      212
   30.760      204
   30.775      225
   30.790      203
   30.805      209
   30.820      203
   30.835      192
   30.850      201
   30.865      213
   30.880      210
   30.895      214
   30.910      216
   30.925      210
   30.940      215
   30.955      213
   30.970      240
   30.985      245
   31.000      242
   31.015      235
   31.030      266
   31.045      247
   31.060      204
   31.075      214
   31.090      227
   31.105      206
   31.120      211
   31.135      250
   31.150      261
   31.165      232
   31.180      250
   31.195      245
   31.210      242
   31.225      234
   31.240      223
   31.255      234
   31.270      260
   31.285      237
   31.300      272
   31.315      256
   31.330      285
   31.345      254
   31.360      256
   31.375      281
   31.390      267
   31.405      275
   31.420      297
   31.435      323
   31.450      343
   31.465      307
   31.480      282
   31.495      268
   31.510      246
   31.525      272
   31.540      255
   31.555      267
   31.570      262
   31.585      222
   31.600      233
   31.615      233
   31.630      239
   31.645      232
   31.660      217
   31.675      204
   31.690      227
   31.705      238
   31.720      223
   31.735      210
   31.750      211
   31.765      182
   31.780      198
   31.795      202
   31.810      202
   31.825      201
   31.840      194
   31.855      200
   31.870      208
   31.885      180
   31.900      180
   31.915      206
   31.930      201
   31.945      212
   31.960      208
   31.975      202
   31.990      189
   32.005      172
   32.020      198
   32.035      180
   32.050      180
   32.065      194
   32.080      183
   32.095      182
   32.110      169
   32.125      176
   32.140      186
   32.155      177
   32.170      171
   32.185      179
   32.200      178
   32.215      176
   32.230      176
   32.245      192
   32.260      198
   32.275      207
   32.290      192
   32.305      191
   32.320      189
   32.335      184
   32.350      188
   32.365      196
   32.380      205
   32.395      203
   32.410      194
   32.425      211
   32.440      208
   32.455      208
   32.470      231
   32.485      255
   32.500      296
   32.515      299
   32.530      288
   32.545      302
   32.560      314
   32.575      306
   32.590      284
   32.605      254
   32.620      244
   32.635      247
   32.650      221
   32.665      193
   32.680      215
   32.695      212
   32.710      206
   32.725      225
   32.740      218
   32.755      217
   32.770      189
   32.785      221
   32.800      215
   32.815      191
   32.830      213
   32.845      200
   32.860      200
   32.875      212
   32.890      184
   32.905      212
   32.920      207
   32.935      211
   32.950      222
   32.965      237
   32.980      264
   32.995      240
   33.010      233
   33.025      289
   33.040      292
   33.055      286
   33.070      277
   33.085      288
   33.100      263
   33.115      246
   33.130      234
   33.145      256
   33.160      254
   33.175      226
   33.190      235
   33.205      258
   33.220      231
   33.235      212
   33.250      213
   33.265      236
   33.280      228
   33.295      254
   33.310      266
   33.325      292
   33.340      276
   33.355      288
   33.370      299
   33.385      284
   33.400      285
   33.415      271
   33.430      246
   33.445      237
   33.460      239
   33.475      216
   33.490      242
   33.505      241
   33.520      266
   33.535      247
   33.550      241
   33.565      220
   33.580      227
   33.595      252
   33.610      240
   33.625      214
   33.640      225
   33.655      221
   33.670      201
   33.685      194
   33.700      195
   33.715      218
   33.730      187
   33.745      197
   33.760      179
   33.775      184
   33.790      185
   33.805      189
   33.820      188
   33.835      147
   33.850      160
   33.865      167
   33.880      188
   33.895      171
   33.910      176
   33.925      191
   33.940      199
   33.955      196
   33.970      196
   33.985      230
   34.000      229
   34.015      221
   34.030      232
   34.045      213
   34.060      224
   34.075      230
   34.090      228
   34.105      204
   34.120      197
   34.135      193
   34.150      193
   34.165      179
   34.180      191
   34.195      192
   34.210      198
   34.225      192
   34.240      194
   34.255      195
   34.270      233
   34.285      222
   34.300      207
   34.315      242
   34.330      209
   34.345      214
   34.360      225
   34.375      207
   34.390      206
   34.405      193
   34.420      189
   34.435      213
   34.450      188
   34.465      204
   34.480      202
   34.495      176
   34.510      207
   34.525      183
   34.540      207
   34.555      201
   34.570      206
   34.585      220
   34.600      228
   34.615      219
   34.630      210
   34.645      201
   34.660      208
   34.675      191
   34.690      215
   34.705      213
   34.720      210
   34.735      224
   34.750      229
   34.765      284
   34.780      287
   34.795      266
   34.810      276
   34.825      249
   34.840      251
   34.855      259
   34.870      263
   34.885      288
   34.900      259
   34.915      282
   34.930      299
   34.945      304
   34.960      312
   34.975      332
   34.990      328
   35.005      310
   35.020      309
   35.035      297
   35.050      313
   35.065      335
   35.080      342
   35.095      359
   35.110      376
   35.125      360
   35.140      321
   35.155      317
   35.170      268
   35.185      255
   35.200      245
   35.215      237
   35.230      236
   35.245      227
   35.260      209
   35.275      179
   35.290      190
   35.305      189
   35.320      205
   35.335      191
   35.350      169
   35.365      173
   35.380      209
   35.395      184
   35.410      182
   35.425      185
   35.440      209
   35.455      180
   35.470      172
   35.485      173
   35.500      184
   35.515      159
   35.530      155
   35.545      173
   35.560      195
   35.575      178
   35.590      185
   35.605      171
   35.620      167
   35.635      177
   35.650      202
   35.665      191
   35.680      183
   35.695      176
   35.710      195
   35.725      175
   35.740      192
   35.755      205
   35.770      208
   35.785      213
   35.800      221
   35.815      216
   35.830      240
   35.845      223
   35.860      220
   35.875      206
   35.890      187
   35.905      199
   35.920      196
   35.935      196
   35.950      204
   35.965      177
   35.980      192
   35.995      186
   36.010      159
   36.025      184
   36.040      185
   36.055      197
   36.070      198
   36.085      190
   36.100      176
   36.115      166
   36.130      183
   36.145      167
   36.160      182
   36.175      164
   36.190      197
   36.205      177
   36.220      193
   36.235      194
   36.250      172
   36.265      181
   36.280      193
   36.295      206
   36.310      207
   36.325      201
   36.340      178
   36.355      169
   36.370      190
   36.385      181
   36.400      192
   36.415      184
   36.430      173
   36.445      162
   36.460      172
   36.475      182
   36.490      167
   36.505      164
   36.520      176
   36.535      190
   36.550      176
   36.565      185
   36.580      187
   36.595      185
   36.610      179
   36.625      191
   36.640      180
   36.655      199
   36.670      178
   36.685      182
   36.700      184
   36.715      189
   36.730      205
   36.745      179
   36.760      190
   36.775      205
   36.790      209
   36.805      222
   36.820      198
   36.835      180
   36.850      191
   36.865      162
   36.880      166
   36.895      177
   36.910      170
   36.925      169
   36.940      151
   36.955      165
   36.970      167
   36.985      193
   37.000      159
   37.015      157
   37.030      153
   37.045      169
   37.060      144
   37.075      156
   37.090      161
   37.105      160
   37.120      169
   37.135      156
   37.150      165
   37.165      187
   37.180      190
   37.195      155
   37.210      165
   37.225      157
   37.240      168
   37.255      167
   37.270      171
   37.285      165
   37.300      170
   37.315      151
   37.330      170
   37.345      161
   37.360      177
   37.375      186
   37.390      183
   37.405      184
   37.420      185
   37.435      190
   37.450      180
   37.465      186
   37.480      175
   37.495      193
   37.510      185
   37.525      199
   37.540      207
   37.555      190
   37.570      171
   37.585      169
   37.600      154
   37.615      144
   37.630      158
   37.645      154
   37.660      176
   37.675      184
   37.690      193
   37.705      179
   37.720      180
   37.735      166
   37.750      170
   37.765      153
   37.780      163
   37.795      172
   37.810      197
   37.825      198
   37.840      206
   37.855      235
   37.870      233
   37.885      246
   37.900      225
   37.915      191
   37.930      200
   37.945      182
   37.960      159
   37.975      170
   37.990      175
   38.005      170
   38.020      171
   38.035      156
   38.050      173
   38.065      186
   38.080      184
   38.095      187
   38.110      180
   38.125      209
   38.140      201
   38.155      192
   38.170      186
   38.185      184
   38.200      182
   38.215      172
   38.230      168
   38.245      159
   38.260      159
   38.275      162
   38.290      165
   38.305      162
   38.320      176
   38.335      162
   38.350      155
   38.365      178
   38.380      187
   38.395      164
   38.410      167
   38.425      187
   38.440      185
   38.455      182
   38.470      185
   38.485      174
   38.500      167
   38.515      169
   38.530      170
   38.545      163
   38.560      161
   38.575      178
   38.590      175
   38.605      162
   38.620      174
   38.635      158
   38.650      152
   38.665      145
   38.680      141
   38.695      157
   38.710      172
   38.725      149
   38.740      130
   38.755      168
   38.770      152
   38.785      140
   38.800      155
   38.815      172
   38.830      160
   38.845      151
   38.860      156
   38.875      148
   38.890      145
   38.905      147
   38.920      147
   38.935      130
   38.950      144
   38.965      146
   38.980      154
   38.995      138
   39.010      137
   39.025      143
   39.040      152
   39.055      139
   39.070      138
   39.085      148
   39.100      156
   39.115      146
   39.130      172
   39.145      186
   39.160      154
   39.175      176
   39.190      179
   39.205      177
   39.220      182
   39.235      176
   39.250      180
   39.265      175
   39.280      176
   39.295      187
   39.310      184
   39.325      188
   39.340      188
   39.355      182
   39.370      171
   39.385      175
   39.400      167
   39.415      161
   39.430      154
   39.445      148
   39.460      159
   39.475      157
   39.490      135
   39.505      165
   39.520      153
   39.535      167
   39.550      158
   39.565      153
   39.580      141
   39.595      145
   39.610      145
   39.625      164
   39.640      142
   39.655      141
   39.670      162
   39.685      155
   39.700      141
   39.715      146
   39.730      155
   39.745      133
   39.760      146
   39.775      171
   39.790      161
   39.805      165
   39.820      167
   39.835      187
   39.850      170
   39.865      175
   39.880      192
   39.895      165
   39.910      173
   39.925      192
   39.940      201
   39.955      195
   39.970      193
   39.985      176
   40.000      181
   40.015      186
   40.030      174
   40.045      156
   40.060      161
   40.075      143
   40.090      154
   40.105      160
   40.120      152
   40.135      159
   40.150      181
   40.165      166
   40.180      157
   40.195      174
   40.210      181
   40.225      183
   40.240      197
   40.255      188
   40.270      169
   40.285      171
   40.300      171
   40.315      169
   40.330      148
   40.345      164
   40.360      158
   40.375      145
   40.390      147
   40.405      152
   40.420      165
   40.435      151
   40.450      125
   40.465      145
   40.480      142
   40.495      149
   40.510      166
   40.525      152
   40.540      146
   40.555      141
   40.570      134
   40.585      141
   40.600      141
   40.615      144
   40.630      143
   40.645      158
   40.660      157
   40.675      150
   40.690      148
   40.705      149
   40.720      152
   40.735      147
   40.750      126
   40.765      129
   40.780      137
   40.795      125
   40.810      137
   40.825      128
   40.840      142
   40.855      150
   40.870      139
   40.885      142
   40.900      153
   40.915      142
   40.930      158
   40.945      163
   40.960      156
   40.975      155
   40.990      142
   41.005      149
   41.020      159
   41.035      156
   41.050      135
   41.065      124
   41.080      149
   41.095      141
   41.110      149
   41.125      139
   41.140      153
   41.155      158
   41.170      148
   41.185      151
   41.200      168
   41.215      158
   41.230      155
   41.245      155
   41.260      162
   41.275      174
   41.290      173
   41.305      158
   41.320      154
   41.335      159
   41.350      149
   41.365      141
   41.380      141
   41.395      152
   41.410      153
   41.425      143
   41.440      162
   41.455      156
   41.470      158
   41.485      156
   41.500      157
   41.515      156
   41.530      151
   41.545      171
   41.560      169
   41.575      181
   41.590      184
   41.605      172
   41.620      161
   41.635      149
   41.650      134
   41.665      142
   41.680      149
   41.695      143
   41.710      150
   41.725      145
   41.740      139
   41.755      160
   41.770      155
   41.785      147
   41.800      142
   41.815      131
   41.830      158
   41.845      142
   41.860      156
   41.875      145
   41.890      159
   41.905      159
   41.920      150
   41.935      153
   41.950      154
   41.965      167
   41.980      160
   41.995      149
   42.010      133
   42.025      146
   42.040      144
   42.055      149
   42.070      137
   42.085      140
   42.100      129
   42.115      137
   42.130      165
   42.145      129
   42.160      136
   42.175      149
   42.190      146
   42.205      160
   42.220      151
   42.235      164
   42.250      150
   42.265      156
   42.280      159
   42.295      160
   42.310      149
   42.325      137
   42.340      130
   42.355      134
   42.370      148
   42.385      168
   42.400      134
   42.415      153
   42.430      164
   42.445      162
   42.460      159
   42.475      137
   42.490      165
   42.505      149
   42.520      154
   42.535      155
   42.550      154
   42.565      153
   42.580      156
   42.595      154
   42.610      155
   42.625      148
   42.640      153
   42.655      134
   42.670      139
   42.685      171
   42.700      152
   42.715      159
   42.730      152
   42.745      141
   42.760      152
   42.775      139
   42.790      139
   42.805      147
   42.820      142
   42.835      140
   42.850      132
   42.865      133
   42.880      149
   42.895      154
   42.910      149
   42.925      134
   42.940      144
   42.955      136
   42.970      131
   42.985      149
   43.000      150
   43.015      127
   43.030      137
   43.045      118
   43.060      138
   43.075      156
   43.090      140
   43.105      127
   43.120      144
   43.135      133
   43.150      151
   43.165      149
   43.180      145
   43.195      142
   43.210      144
   43.225      146
   43.240      150
   43.255      138
   43.270      152
   43.285      138
   43.300      139
   43.315      125
   43.330      143
   43.345      144
   43.360      139
   43.375      143
   43.390      148
   43.405      148
   43.420      150
   43.435      135
   43.450      138
   43.465      144
   43.480      154
   43.495      150
   43.510      133
   43.525      132
   43.540      143
   43.555      140
   43.570      160
   43.585      150
   43.600      152
   43.615      146
   43.630      145
   43.645      148
   43.660      141
   43.675      138
   43.690      150
   43.705      134
   43.720      141
   43.735      153
   43.750      138
   43.765      143
   43.780      157
   43.795      159
   43.810      161
   43.825      163
   43.840      169
   43.855      165
   43.870      170
   43.885      170
   43.900      152
   43.915      148
   43.930      170
   43.945      169
   43.960      149
   43.975      158
   43.990      156
   44.005      150
   44.020      136
   44.035      156
   44.050      145
   44.065      142
   44.080      148
   44.095      146
   44.110      150
   44.125      150
   44.140      169
   44.155      165
   44.170      152
   44.185      158
   44.200      160
   44.215      146
   44.230      149
   44.245      172
   44.260      177
   44.275      164
   44.290      145
   44.305      135
   44.320      155
   44.335      156
   44.350      172
   44.365      167
   44.380      176
   44.395      168
   44.410      180
   44.425      180
   44.440      173
   44.455      180
   44.470      180
   44.485      176
   44.500      173
   44.515      165
   44.530      179
   44.545      179
   44.560      165
   44.575      158
   44.590      160
   44.605      167
   44.620      175
   44.635      167
   44.650      142
   44.665      165
   44.680      168
   44.695      158
   44.710      154
   44.725      136
   44.740      137
   44.755      131
   44.770      161
   44.785      158
   44.800      150
   44.815      148
   44.830      131
   44.845      158
   44.860      176
   44.875      155
   44.890      161
   44.905      160
   44.920      168
   44.935      164
   44.950      172
   44.965      139
   44.980      142
   44.995      141
   45.010      115
   45.025      124
   45.040      125
   45.055      140
   45.070      140
   45.085      126
   45.100      138
   45.115      149
   45.130      135
   45.145      132
   45.160      143
   45.175      159
   45.190      144
   45.205      131
   45.220      141
   45.235      137
   45.250      123
   45.265      136
   45.280      128
   45.295      120
   45.310      158
   45.325      152
   45.340      154
   45.355      143
   45.370      128
   45.385      129
   45.400      131
   45.415      141
   45.430      145
   45.445      139
   45.460      136
   45.475      139
   45.490      149
   45.505      153
   45.520      154
   45.535      157
   45.550      142
   45.565      142
   45.580      141
   45.595      134
   45.610      130
   45.625      130
   45.640      148
   45.655      149
   45.670      138
   45.685      156
   45.700      126
   45.715      116
   45.730      135
   45.745      127
   45.760      141
   45.775      138
   45.790      145
   45.805      140
   45.820      143
   45.835      142
   45.850      144
   45.865      157
   45.880      159
   45.895      141
   45.910      134
   45.925      141
   45.940      136
   45.955      136
   45.970      141
   45.985      134
