    4.000       48
    4.015       65
    4.030       50
    4.045       43
    4.060       50
    4.075       44
    4.090       59
    4.105       55
    4.120       51
    4.135       47
    4.150       49
    4.165       51
    4.180       54
    4.195       45
    4.210       48
    4.225       54
    4.240       54
    4.255       54
    4.270       48
    4.285       56
    4.300       52
    4.315       45
    4.330       46
    4.345       46
    4.360       63
    4.375       52
    4.390       54
    4.405       54
    4.420       58
    4.435       54
    4.450       54
    4.465       40
    4.480       54
    4.495       46
    4.510       52
    4.525       49
    4.540       43
    4.555       49
    4.570       52
    4.585       56
    4.600       43
    4.615       49
    4.630       39
    4.645       50
    4.660       58
    4.675       50
    4.690       48
    4.705       48
    4.720       50
    4.735       45
    4.750       49
    4.765       49
    4.780       49
    4.795       42
    4.810       44
    4.825       53
    4.840       50
    4.855       52
    4.870       58
    4.885       49
    4.900       49
    4.915       43
    4.930       45
    4.945       49
    4.960       48
    4.975       50
    4.990       44
    5.005       58
    5.020       47
    5.035       44
    5.050       49
    5.065       54
    5.080       46
    5.095       51
    5.110       49
    5.125       48
    5.140       46
    5.155       58
    5.170       53
    5.185       47
    5.200       41
    5.215       48
    5.230       55
    5.245       41
    5.260       52
    5.275       55
    5.290       53
    5.305       55
    5.320       51
    5.335       49
    5.350       48
    5.365       50
    5.380       33
    5.395       41
    5.410       45
    5.425       47
    5.440       50
    5.455       46
    5.470       54
    5.485       51
    5.500       57
    5.515       47
    5.530       46
    5.545       44
    5.560       56
    5.575       42
    5.590       47
    5.605       47
    5.620       44
    5.635       47
    5.650       50
    5.665       51
    5.680       50
    5.695       50
    5.710       43
    5.725       47
    5.740       52
    5.755       52
    5.770       43
    5.785       45
    5.800       51
    5.815       46
    5.830       34
    5.845       48
    5.860       48
    5.875       52
    5.890       41
    5.905       41
    5.920       51
    5.935       57
    5.950       52
    5.965       43
    5.980       49
    5.995       53
    6.010       58
    6.025       48
    6.040       56
    6.055       46
    6.070       48
    6.085       51
    6.100       51
    6.115       42
    6.130       40
    6.145       45
    6.160       50
    6.175       56
    6.190       45
    6.205       50
    6.220       58
    6.235       56
    6.250       43
    6.265       50
    6.280       52
    6.295       72
    6.310       69
    6.325       66
    6.340       59
    6.355       60
    6.370       65
    6.385       67
    6.400       71
    6.415       75
    6.430       78
    6.445       81
    6.460       89
    6.475      111
    6.490       93
    6.505      113
    6.520      127
    6.535      133
    6.550      148
    6.565      180
    6.580      188
    6.595      220
    6.610      184
    6.625      188
    6.640      216
    6.655      177
    6.670      114
    6.685       86
    6.700       65
    6.715       51
    6.730       44
    6.745       45
    6.760       61
    6.775       51
    6.790       53
    6.805       48
    6.820       48
    6.835       52
    6.850       44
    6.865       46
    6.880       48
    6.895       44
    6.910       48
    6.925       57
    6.940       55
    6.955       51
    6.970       48
    6.985       49
    7.000       54
    7.015       52
    7.030       49
    7.045       51
    7.060       56
    7.075       59
    7.090       69
    7.105       70
    7.120       68
    7.135       72
    7.150       93
    7.165      104
    7.180       91
    7.195       76
    7.210       49
    7.225       48
    7.240       46
    7.255       53
    7.270       46
    7.285       36
    7.300       39
    7.315       43
    7.330       37
    7.345       38
    7.360       44
    7.375       47
    7.390       48
    7.405       52
    7.420       44
    7.435       53
    7.450       54
    7.465       52
    7.480       49
    7.495       50
    7.510       48
    7.525       45
    7.540       53
    7.555       44
    7.570       44
    7.585       47
    7.600       42
    7.615       45
    7.630       45
    7.645       45
    7.660       45
    7.675       50
    7.690       42
    7.705       45
    7.720       39
    7.735       38
    7.750       46
    7.765       50
    7.780       47
    7.795       45
    7.810       54
    7.825       45
    7.840       44
    7.855       50
    7.870       56
    7.885       52
    7.900       43
    7.915       47
    7.930       47
    7.945       42
    7.960       42
    7.975       41
    7.990       45
    8.005       46
    8.020       41
    8.035       47
    8.050       44
    8.065       51
    8.080       46
    8.095       50
    8.110       56
    8.125       49
    8.140       44
    8.155       47
    8.170       43
    8.185       37
    8.200       43
    8.215       44
    8.230       38
    8.245       42
    8.260       47
    8.275       52
    8.290       40
    8.305       37
    8.320       42
    8.335       47
    8.350       44
    8.365       47
    8.380       44
    8.395       39
    8.410       44
    8.425       47
    8.440       43
    8.455       41
    8.470       45
    8.485       47
    8.500       48
    8.515       54
    8.530       54
    8.545       54
    8.560       53
    8.575       61
    8.590       49
    8.605       52
    8.620       39
    8.635       50
    8.650       44
    8.665       44
    8.680       45
    8.695       42
    8.710       38
    8.725       49
    8.740       49
    8.755       54
    8.770       51
    8.785       46
    8.800       41
    8.815       47
    8.830       45
    8.845       42
    8.860       47
    8.875       51
    8.890       43
    8.905       49
    8.920       54
    8.935       52
    8.950       41
    8.965       42
    8.980       51
    8.995       57
    9.010       42
    9.025       46
    9.040       38
    9.055       44
    9.070       51
    9.085       42
    9.100       39
    9.115       38
    9.130       45
    9.145       48
    9.160       34
    9.175       50
    9.190       57
    9.205       51
    9.220       49
    9.235       48
    9.250       44
    9.265       50
    9.280       46
    9.295       46
    9.310       40
    9.325       46
    9.340       46
    9.355       43
    9.370       48
    9.385       51
    9.400       50
    9.415       37
    9.430       44
    9.445       39
    9.460       49
    9.475       56
    9.490       44
    9.505       42
    9.520       42
    9.535       44
    9.550       48
    9.565       49
    9.580       55
    9.595       57
    9.610       43
    9.625       45
    9.640       54
    9.655       61
    9.670       47
    9.685       46
    9.700       57
    9.715       49
    9.730       48
    9.745       60
    9.760       54
    9.775       44
    9.790       50
    9.805       47
    9.820       53
    9.835       48
    9.850       30
    9.865       44
    9.880       43
    9.895       45
    9.910       57
    9.925       49
    9.940       48
    9.955       43
    9.970       55
    9.985       45
   10.000       40
   10.015       36
   10.030       47
   10.045       56
   10.060       46
   10.075       37
   10.090       36
   10.105       43
   10.120       52
   10.135       43
   10.150       51
   10.165       50
   10.180       43
   10.195       52
   10.210       48
   10.225       52
   10.240       56
   10.255       52
   10.270       47
   10.285       46
   10.300       55
   10.315       57
   10.330       60
   10.345       52
   10.360       60
   10.375       68
   10.390       65
   10.405       65
   10.420       82
   10.435       86
   10.450       90
   10.465       73
   10.480       65
   10.495       58
   10.510       56
   10.525       51
   10.540       46
   10.555       50
   10.570       61
   10.585       53
   10.600       40
   10.615       52
   10.630       57
   10.645       65
   10.660       61
   10.675       72
   10.690       75
   10.705       75
   10.720       67
   10.735       88
   10.750       73
   10.765       80
   10.780      102
   10.795      110
   10.810      120
   10.825      137
   10.840      127
   10.855      110
   10.870       80
   10.885       52
   10.900       45
   10.915       48
   10.930       52
   10.945       50
   10.960       50
   10.975       48
   10.990       54
   11.005       57
   11.020       47
   11.035       56
   11.050       54
   11.065       51
   11.080       59
   11.095       60
   11.110       66
   11.125       69
   11.140       61
   11.155       74
   11.170       73
   11.185       84
   11.200      107
   11.215       97
   11.230       83
   11.245       64
   11.260       65
   11.275       59
   11.290       62
   11.305       53
   11.320       54
   11.335       55
   11.350       58
   11.365       53
   11.380       53
   11.395       63
   11.410       64
   11.425       64
   11.440       53
   11.455       40
   11.470       49
   11.485       51
   11.500       43
   11.515       37
   11.530       48
   11.545       37
   11.560       44
   11.575       47
   11.590       47
   11.605       48
   11.620       43
   11.635       50
   11.650       38
   11.665       52
   11.680       47
   11.695       59
   11.710       62
   11.725       57
   11.740       47
   11.755       49
   11.770       58
   11.785       51
   11.800       66
   11.815       59
   11.830       81
   11.845       69
   11.860       77
   11.875       72
   11.890       63
   11.905       53
   11.920       54
   11.935       51
   11.950       43
   11.965       42
   11.980       56
   11.995       67
   12.010       70
   12.025       59
   12.040       64
   12.055       78
   12.070       64
   12.085       48
   12.100       64
   12.115       61
   12.130       57
   12.145       61
   12.160       60
   12.175       45
   12.190       46
   12.205       62
   12.220       49
   12.235       54
   12.250       59
   12.265       49
   12.280       41
   12.295       61
   12.310       60
   12.325       62
   12.340       46
   12.355       50
   12.370       65
   12.385       60
   12.400       57
   12.415       53
   12.430       59
   12.445       63
   12.460       63
   12.475      103
   12.490      114
   12.505      112
   12.520      124
   12.535      138
   12.550      156
   12.565      189
   12.580      198
   12.595      246
   12.610      312
   12.625      382
   12.640      422
   12.655      403
   12.670      319
   12.685      254
   12.700      257
   12.715      330
   12.730      310
   12.745      265
   12.760      196
   12.775      141
   12.790      102
   12.805       89
   12.820       65
   12.835       69
   12.850       86
   12.865       79
   12.880       70
   12.895       79
   12.910       81
   12.925      109
   12.940      101
   12.955      119
   12.970      126
   12.985      140
   13.000      163
   13.015      201
   13.030      229
   13.045      211
   13.060      164
   13.075      141
   13.090      131
   13.105      177
   13.120      167
   13.135      186
   13.150      242
   13.165      273
   13.180      426
   13.195      557
   13.210      646
   13.225      606
   13.240      512
   13.255      495
   13.270      495
   13.285      549
   13.300      764
   13.315      972
   13.330     1101
   13.345      955
   13.360      718
   13.375      408
   13.390      219
   13.405      135
   13.420      117
   13.435      110
   13.450      132
   13.465      131
   13.480      143
   13.495      172
   13.510      184
   13.525      228
   13.540      274
   13.555      303
   13.570      295
   13.585      307
   13.600      294
   13.615      239
   13.630      190
   13.645      107
   13.660       82
   13.675       68
   13.690       67
   13.705       65
   13.720       66
   13.735       55
   13.750       66
   13.765       76
   13.780       84
   13.795       90
   13.810      103
   13.825      124
   13.840      112
   13.855      106
   13.870       90
   13.885       62
   13.900       51
   13.915       59
   13.930       66
   13.945       66
   13.960       48
   13.975       57
   13.990       55
   14.005       65
   14.020       55
   14.035       62
   14.050       57
   14.065       59
   14.080       62
   14.095       56
   14.110       60
   14.125       65
   14.140       62
   14.155       58
   14.170       69
   14.185       76
   14.200       82
   14.215       88
   14.230       91
   14.245      101
   14.260      140
   14.275      147
   14.290      168
   14.305      176
   14.320      155
   14.335      141
   14.350      140
   14.365      147
   14.380      168
   14.395      172
   14.410      165
   14.425      146
   14.440      155
   14.455      191
   14.470      242
   14.485      302
   14.500      289
   14.515      249
   14.530      179
   14.545      102
   14.560       91
   14.575       74
   14.590       71
   14.605       55
   14.620       53
   14.635       62
   14.650       60
   14.665       55
   14.680       46
   14.695       50
   14.710       68
   14.725       59
   14.740       66
   14.755       68
   14.770       61
   14.785       54
   14.800       60
   14.815       69
   14.830       80
   14.845       66
   14.860       66
   14.875       69
   14.890       76
   14.905      110
   14.920      122
   14.935      116
   14.950      157
   14.965      181
   14.980      241
   14.995      300
   15.010      322
   15.025      364
   15.040      399
   15.055      433
   15.070      573
   15.085      736
   15.100      731
   15.115      600
   15.130      389
   15.145      226
   15.160      119
   15.175      112
   15.190      109
   15.205      104
   15.220      119
   15.235      116
   15.250      143
   15.265      153
   15.280      185
   15.295      231
   15.310      260
   15.325      224
   15.340      207
   15.355      187
   15.370      156
   15.385      148
   15.400      150
   15.415      132
   15.430      103
   15.445       96
   15.460       97
   15.475      100
   15.490      120
   15.505      125
   15.520      145
   15.535      166
   15.550      204
   15.565      261
   15.580      283
   15.595      291
   15.610      280
   15.625      218
   15.640      161
   15.655      126
   15.670      114
   15.685      111
   15.700      123
   15.715      135
   15.730      162
   15.745      171
   15.760      201
   15.775      242
   15.790      237
   15.805      208
   15.820      151
   15.835      113
   15.850       86
   15.865       77
   15.880       79
   15.895       70
   15.910       58
   15.925       63
   15.940       61
   15.955       72
   15.970       77
   15.985       90
   16.000       95
   16.015      114
   16.030      133
   16.045      156
   16.060      171
   16.075      212
   16.090      265
   16.105      293
   16.120      333
   16.135      302
   16.150      243
   16.165      175
   16.180      138
   16.195      112
   16.210      100
   16.225       95
   16.240      111
   16.255      119
   16.270      118
   16.285      128
   16.300      186
   16.315      171
   16.330      190
   16.345      215
   16.360      196
   16.375      231
   16.390      272
   16.405      373
   16.420      425
   16.435      459
   16.450      358
   16.465      285
   16.480      235
   16.495      193
   16.510      217
   16.525      228
   16.540      298
   16.555      344
   16.570      338
   16.585      246
   16.600      219
   16.615      192
   16.630      172
   16.645      171
   16.660      217
   16.675      273
   16.690      317
   16.705      311
   16.720      316
   16.735      265
   16.750      269
   16.765      258
   16.780      301
   16.795      290
   16.810      284
   16.825      280
   16.840      196
   16.855      150
   16.870      113
   16.885       88
   16.900       81
   16.915       97
   16.930       91
   16.945      106
   16.960      118
   16.975      135
   16.990      148
   17.005      163
   17.020      199
   17.035      190
   17.050      161
   17.065      137
   17.080      113
   17.095      123
   17.110      118
   17.125      126
   17.140      145
   17.155      163
   17.170      178
   17.185      209
   17.200      230
   17.215      289
   17.230      296
   17.245      247
   17.260      198
   17.275      133
   17.290      111
   17.305      121
   17.320      128
   17.335      121
   17.350      111
   17.365      114
   17.380      117
   17.395      121
   17.410      127
   17.425      135
   17.440      161
   17.455      203
   17.470      218
   17.485      205
   17.500      147
   17.515      116
   17.530      107
   17.545       91
   17.560       80
   17.575       74
   17.590       86
   17.605      101
   17.620       76
   17.635       93
   17.650      107
   17.665      139
   17.680      122
   17.695      110
   17.710      109
   17.725      122
   17.740      134
   17.755      108
   17.770       99
   17.785       95
   17.800       89
   17.815       91
   17.830       99
   17.845       86
   17.860       80
   17.875       76
   17.890       66
   17.905       68
   17.920       74
   17.935       63
   17.950       54
   17.965       60
   17.980       67
   17.995       61
   18.010       59
   18.025       58
   18.040       71
   18.055       58
   18.070       54
   18.085       61
   18.100       63
   18.115       64
   18.130       76
   18.145       67
   18.160       71
   18.175       91
   18.190       93
   18.205       99
   18.220      119
   18.235      129
   18.250      128
   18.265      145
   18.280      158
   18.295      193
   18.310      162
   18.325      140
   18.340      105
   18.355       80
   18.370       73
   18.385       68
   18.400       63
   18.415       67
   18.430       67
   18.445       65
   18.460       78
   18.475       72
   18.490       96
   18.505       87
   18.520      103
   18.535      137
   18.550      167
   18.565      155
   18.580      173
   18.595      135
   18.610      118
   18.625      141
   18.640      168
   18.655      176
   18.670      197
   18.685      208
   18.700      166
   18.715      162
   18.730      136
   18.745      124
   18.760       99
   18.775       81
   18.790       78
   18.805       95
   18.820      101
   18.835      106
   18.850      124
   18.865      123
   18.880      139
   18.895      144
   18.910      130
   18.925      120
   18.940      113
   18.955      115
   18.970      108
   18.985      100
   19.000       90
   19.015       81
   19.030       67
   19.045       70
   19.060       65
   19.075       65
   19.090       75
   19.105       58
   19.120       58
   19.135       57
   19.150       60
   19.165       55
   19.180       66
   19.195       63
   19.210       61
   19.225       59
   19.240       61
   19.255       57
   19.270       47
   19.285       47
   19.300       73
   19.315       65
   19.330       62
   19.345       51
   19.360       53
   19.375       62
   19.390       58
   19.405       50
   19.420       66
   19.435       61
   19.450       59
   19.465       58
   19.480       71
   19.495       79
   19.510       88
   19.525       83
   19.540      107
   19.555      118
   19.570      129
   19.585      149
   19.600      130
   19.615      150
   19.630      159
   19.645      141
   19.660      124
   19.675       85
   19.690       94
   19.705       80
   19.720       71
   19.735       74
   19.750       78
   19.765       96
   19.780      110
   19.795      122
   19.810      155
   19.825      203
   19.840      253
   19.855      326
   19.870      391
   19.885      408
   19.900      376
   19.915      301
   19.930      238
   19.945      177
   19.960      180
   19.975      191
   19.990      211
   20.005      236
   20.020      240
   20.035      220
   20.050      207
   20.065      186
   20.080      159
   20.095      118
   20.110       94
   20.125       86
   20.140       75
   20.155       77
   20.170       85
   20.185       77
   20.200       83
   20.215       92
   20.230      103
   20.245       94
   20.260       82
   20.275       72
   20.290       71
   20.305       64
   20.320       55
   20.335       59
   20.350       65
   20.365       66
   20.380       62
   20.395       60
   20.410       64
   20.425       58
   20.440       56
   20.455       57
   20.470       61
   20.485       68
   20.500       76
   20.515       75
   20.530       79
   20.545       81
   20.560       82
   20.575       98
   20.590       76
   20.605       66
   20.620       79
   20.635       60
   20.650       64
   20.665       69
   20.680       83
   20.695       87
   20.710       92
   20.725      102
   20.740      117
   20.755      143
   20.770      153
   20.785      156
   20.800      147
   20.815      154
   20.830      187
   20.845      171
   20.860      196
   20.875      168
   20.890      129
   20.905      126
   20.920       90
   20.935       77
   20.950       74
   20.965       63
   20.980       78
   20.995       76
   21.010       78
   21.025       64
   21.040       67
   21.055       67
   21.070       54
   21.085       66
   21.100       65
   21.115       80
   21.130       71
   21.145       78
   21.160       79
   21.175       95
   21.190       81
   21.205       80
   21.220       82
   21.235       97
   21.250       94
   21.265       95
   21.280       78
   21.295       56
   21.310       54
   21.325       60
   21.340       64
   21.355       68
   21.370       57
   21.385       59
   21.400       51
   21.415       64
   21.430       67
   21.445       63
   21.460       70
   21.475       85
   21.490       91
   21.505       86
   21.520      117
   21.535      136
   21.550      167
   21.565      211
   21.580      182
   21.595      187
   21.610      155
   21.625      140
   21.640      136
   21.655      124
   21.670      127
   21.685      142
   21.700      165
   21.715      238
   21.730      285
   21.745      382
   21.760      459
   21.775      543
   21.790      500
   21.805      398
   21.820      293
   21.835      218
   21.850      148
   21.865      135
   21.880      135
   21.895      132
   21.910      132
   21.925       99
   21.940       88
   21.955       74
   21.970       60
   21.985       52
   22.000       68
   22.015       53
   22.030       64
   22.045       63
   22.060       64
   22.075       58
   22.090       65
   22.105       64
   22.120       65
   22.135       61
   22.150       67
   22.165       69
   22.180       81
   22.195       69
   22.210       66
   22.225       86
   22.240       78
   22.255       91
   22.270       83
   22.285       89
   22.300       99
   22.315       89
   22.330       87
   22.345       95
   22.360      116
   22.375      128
   22.390      120
   22.405       96
   22.420      104
   22.435       92
   22.450       80
   22.465       64
   22.480       87
   22.495       74
   22.510       96
   22.525      102
   22.540      103
   22.555      127
   22.570      145
   22.585      166
   22.600      178
   22.615      202
   22.630      167
   22.645      135
   22.660       98
   22.675       96
   22.690      102
   22.705      104
   22.720      125
   22.735      135
   22.750      158
   22.765      161
   22.780      179
   22.795      198
   22.810      218
   22.825      204
   22.840      182
   22.855      183
   22.870      154
   22.885      130
   22.900      110
   22.915      108
   22.930       88
   22.945       89
   22.960       79
   22.975       83
   22.990       75
   23.005       88
   23.020      102
   23.035      115
   23.050      115
   23.065      109
   23.080       97
   23.095       79
   23.110       86
   23.125      106
   23.140      110
   23.155      118
   23.170      116
   23.185      125
   23.200      113
   23.215       90
   23.230       74
   23.245       78
   23.260       78
   23.275       78
   23.290       70
   23.305       71
   23.320       77
   23.335       78
   23.350       76
   23.365       80
   23.380       96
   23.395       77
   23.410       62
   23.425       61
   23.440       46
   23.455       48
   23.470       70
   23.485       52
   23.500       53
   23.515       59
   23.530       52
   23.545       56
   23.560       44
   23.575       58
   23.590       55
   23.605       74
   23.620       73
   23.635       63
   23.650       49
   23.665       57
   23.680       56
   23.695       62
   23.710       61
   23.725       65
   23.740       64
   23.755       52
   23.770       65
   23.785       68
   23.800       79
   23.815       68
   23.830       70
   23.845       69
   23.860       71
   23.875       65
   23.890       83
   23.905       74
   23.920       90
   23.935       92
   23.950      101
   23.965      110
   23.980      118
   23.995       96
   24.010       79
   24.025       67
   24.040       70
   24.055       56
   24.070       54
   24.085       53
   24.100       64
   24.115       51
   24.130       67
   24.145       66
   24.160       72
   24.175       87
   24.190      112
   24.205      121
   24.220      109
   24.235      113
   24.250       96
   24.265       82
   24.280       65
   24.295       71
   24.310       56
   24.325       66
   24.340       66
   24.355       76
   24.370       67
   24.385       73
   24.400       74
   24.415       80
   24.430       77
   24.445       85
   24.460       84
   24.475       71
   24.490       78
   24.505       77
   24.520       91
   24.535       90
   24.550       77
   24.565       72
   24.580       83
   24.595       96
   24.610       97
   24.625       89
   24.640       86
   24.655       82
   24.670       74
   24.685       78
   24.700       78
   24.715       74
   24.730       91
   24.745       77
   24.760       71
   24.775       71
   24.790       68
   24.805       66
   24.820       66
   24.835       84
   24.850       70
   24.865       62
   24.880       86
   24.895       90
   24.910       89
   24.925      115
   24.940      126
   24.955      118
   24.970       88
   24.985       81
   25.000       82
   25.015       69
   25.030       76
   25.045       77
   25.060       72
   25.075       70
   25.090       74
   25.105       81
   25.120       85
   25.135       91
   25.150      100
   25.165      106
   25.180       78
   25.195       83
   25.210       61
   25.225       67
   25.240       64
   25.255       78
   25.270       72
   25.285       60
   25.300       76
   25.315       85
   25.330       87
   25.345       86
   25.360       92
   25.375       95
   25.390      131
   25.405      118
   25.420      100
   25.435       94
   25.450       83
   25.465       77
   25.480       83
   25.495       68
   25.510       66
   25.525       73
   25.540       70
   25.555       93
   25.570      123
   25.585      130
   25.600      147
   25.615      155
   25.630      187
   25.645      171
   25.660      172
   25.675      161
   25.690      139
   25.705      104
   25.720       89
   25.735       83
   25.750       75
   25.765       75
   25.780       80
   25.795      102
   25.810      126
   25.825      115
   25.840      133
   25.855      142
   25.870      124
   25.885      114
   25.900       84
   25.915       83
   25.930       79
   25.945       74
   25.960       82
   25.975       80
   25.990       86
   26.005       79
   26.020       77
   26.035       87
   26.050       95
   26.065       92
   26.080       95
   26.095      102
   26.110      105
   26.125      104
   26.140      105
   26.155       99
   26.170       84
   26.185       76
   26.200       66
   26.215       70
   26.230       74
   26.245       75
   26.260       71
   26.275       66
   26.290       81
   26.305       83
   26.320       78
   26.335       76
   26.350       79
   26.365       76
   26.380       72
   26.395       59
   26.410       53
   26.425       61
   26.440       65
   26.455       57
   26.470       59
   26.485       51
   26.500       54
   26.515       61
   26.530       68
   26.545       72
   26.560       73
   26.575       80
   26.590      101
   26.605      114
   26.620       95
   26.635       82
   26.650       88
   26.665       72
   26.680       80
   26.695       68
   26.710       65
   26.725       68
   26.740       79
   26.755       56
   26.770       57
   26.785       89
   26.800       86
   26.815       97
   26.830      121
   26.845      142
   26.860      137
   26.875      141
   26.890      161
   26.905      148
   26.920      163
   26.935      137
   26.950      164
   26.965      128
   26.980      108
   26.995       95
   27.010       88
   27.025       95
   27.040       81
   27.055       87
   27.070       73
   27.085       74
   27.100       71
   27.115       64
   27.130       83
   27.145       74
   27.160       83
   27.175       90
   27.190       92
   27.205       80
   27.220       74
   27.235       86
   27.250       69
   27.265       77
   27.280       91
   27.295       84
   27.310       79
   27.325       70
   27.340       80
   27.355       83
   27.370       65
   27.385      103
   27.400       98
   27.415      100
   27.430      109
   27.445      117
   27.460      123
   27.475      131
   27.490      145
   27.505      144
   27.520      146
   27.535      153
   27.550      145
   27.565      158
   27.580      173
   27.595      154
   27.610      136
   27.625      152
   27.640      143
   27.655      122
   27.670      109
   27.685       88
   27.700       94
   27.715       81
   27.730       77
   27.745       77
   27.760       76
   27.775      100
   27.790       88
   27.805      102
   27.820       90
   27.835      115
   27.850      124
   27.865      118
   27.880       94
   27.895       93
   27.910      103
   27.925       79
   27.940       77
   27.955       82
   27.970       66
   27.985       64
   28.000       72
   28.015       63
   28.030       80
   28.045       82
   28.060       90
   28.075       82
   28.090       79
   28.105       94
   28.120       90
   28.135       79
   28.150       82
   28.165       77
   28.180       81
   28.195       84
   28.210       80
   28.225      104
   28.240       91
   28.255       97
   28.270       92
   28.285       85
   28.300      110
   28.315      114
   28.330       97
   28.345      105
   28.360       87
   28.375       76
   28.390       97
   28.405       83
   28.420       64
   28.435       68
   28.450       70
   28.465       75
   28.480       73
   28.495       74
   28.510       64
   28.525       61
   28.540       64
   28.555       73
   28.570       67
   28.585       83
   28.600       68
   28.615       72
   28.630       83
   28.645       91
   28.660       86
   28.675       76
   28.690       88
   28.705       94
   28.720       71
   28.735       77
   28.750       78
   28.765       81
   28.780       75
   28.795       80
   28.810       79
   28.825       90
   28.840       99
   28.855       99
   28.870      106
   28.885      115
   28.900      103
   28.915       93
   28.930       93
   28.945       87
   28.960       91
   28.975       97
   28.990       98
   29.005      106
   29.020      107
   29.035      109
   29.050       86
   29.065       91
   29.080      107
   29.095       97
   29.110       86
   29.125       84
   29.140       78
   29.155       85
   29.170       89
   29.185       87
   29.200       80
   29.215       88
   29.230       86
   29.245       82
   29.260       82
   29.275       75
   29.290       73
   29.305       79
   29.320       74
   29.335       65
   29.350       79
   29.365       74
   29.380       69
   29.395       76
   29.410       73
   29.425       75
   29.440       79
   29.455       82
   29.470       95
   29.485       89
   29.500      102
   29.515       92
   29.530       78
   29.545       92
   29.560       86
   29.575       82
   29.590       96
   29.605       98
   29.620      118
   29.635      121
   29.650      131
   29.665      115
   29.680      111
   29.695       90
   29.710       85
   29.725       79
   29.740       77
   29.755       70
   29.770       90
   29.785       79
   29.800       74
   29.815       78
   29.830       83
   29.845       76
   29.860       79
   29.875       77
   29.890       72
   29.905       61
   29.920       63
   29.935       59
   29.950       68
   29.965       56
   29.980       70
   29.995       69
   30.010       57
   30.025       78
   30.040       62
   30.055       73
   30.070       77
   30.085       70
   30.100       62
   30.115       72
   30.130       67
   30.145       63
   30.160       68
   30.175       66
   30.190       70
   30.205       69
   30.220       63
   30.235       74
   30.250       68
   30.265       66
   30.280       61
   30.295       75
   30.310       55
   30.325       74
   30.340       83
   30.355       76
   30.370       67
   30.385       66
   30.400       77
   30.415       73
   30.430       79
   30.445       74
   30.460       77
   30.475       82
   30.490       79
   30.505       98
   30.520       80
   30.535       94
   30.550      110
   30.565      102
   30.580      104
   30.595       92
   30.610      105
   30.625       89
   30.640       83
   30.655       77
   30.670       73
   30.685       59
   30.700       61
   30.715       62
   30.730       80
   30.745       71
   30.760       76
   30.775       73
   30.790       70
   30.805       69
   30.820       85
   30.835       81
   30.850       84
   30.865       84
   30.880       93
   30.895       95
   30.910       89
   30.925      109
   30.940      104
   30.955      105
   30.970       85
   30.985       84
   31.000       93
   31.015       87
   31.030       84
   31.045       78
   31.060       83
   31.075       76
   31.090       82
   31.105       87
   31.120       67
   31.135       78
   31.150       80
   31.165       83
   31.180       75
   31.195       67
   31.210       64
   31.225       62
   31.240       64
   31.255       72
   31.270       99
   31.285       81
   31.300       93
   31.315       79
   31.330       83
   31.345       91
   31.360       85
   31.375       76
   31.390       84
   31.405       74
   31.420       72
   31.435       80
   31.450       81
   31.465       84
   31.480       77
   31.495       83
   31.510      106
   31.525      102
   31.540       89
   31.555      101
   31.570       74
   31.585       76
   31.600       76
   31.615       74
   31.630       88
   31.645       83
   31.660      102
   31.675      106
   31.690      101
   31.705       94
   31.720       91
   31.735      102
   31.750       96
   31.765       84
   31.780       76
   31.795       89
   31.810       91
   31.825      112
   31.840       95
   31.855       95
   31.870       99
   31.885      105
   31.900       87
   31.915       90
   31.930       90
   31.945       84
   31.960       80
   31.975       81
   31.990       74
   32.005       63
   32.020       56
   32.035       69
   32.050       79
   32.065       80
   32.080       86
   32.095       83
   32.110       90
   32.125       83
   32.140       87
   32.155       72
   32.170       64
   32.185       64
   32.200       66
   32.215       65
   32.230       61
   32.245       71
   32.260       71
   32.275       72
   32.290       69
   32.305       67
   32.320       73
   32.335       68
   32.350       79
   32.365       81
   32.380       76
   32.395       68
   32.410       81
   32.425       71
   32.440       73
   32.455       69
   32.470       61
   32.485       73
   32.500       70
   32.515       67
   32.530       61
   32.545       70
   32.560       65
   32.575       74
   32.590       77
   32.605       74
   32.620       64
   32.635       76
   32.650       72
   32.665       53
   32.680       68
   32.695       74
   32.710       69
   32.725       63
   32.740       65
   32.755       67
   32.770       76
   32.785       68
   32.800       74
   32.815       77
   32.830       88
   32.845       68
   32.860       71
   32.875      102
   32.890      103
   32.905      115
   32.920      106
   32.935      107
   32.950      105
   32.965       91
   32.980       87
   32.995       90
   33.010       80
   33.025       83
   33.040       72
   33.055       77
   33.070       81
   33.085       67
   33.100       69
   33.115       83
   33.130       70
   33.145       84
   33.160       75
   33.175       79
   33.190       75
   33.205       64
   33.220       68
   33.235       59
   33.250       70
   33.265       72
   33.280       67
   33.295       75
   33.310       84
   33.325       89
   33.340       82
   33.355       82
   33.370       81
   33.385       84
   33.400       90
   33.415       94
   33.430      118
   33.445       99
   33.460       94
   33.475       97
   33.490       82
   33.505       78
   33.520       92
   33.535       91
   33.550       83
   33.565       92
   33.580       85
   33.595       89
   33.610       75
   33.625       77
   33.640       85
   33.655       68
   33.670       78
   33.685      103
   33.700       83
   33.715       82
   33.730       98
   33.745      113
   33.760      112
   33.775      127
   33.790      115
   33.805      115
   33.820      107
   33.835       94
   33.850       92
   33.865       85
   33.880       83
   33.895       78
   33.910       72
   33.925       87
   33.940      102
   33.955       74
   33.970       88
   33.985       83
   34.000       81
   34.015       71
   34.030       79
   34.045       86
   34.060       87
   34.075       79
   34.090       79
   34.105       81
   34.120       72
   34.135       70
   34.150       72
   34.165       66
   34.180       53
   34.195       62
   34.210       60
   34.225       66
   34.240       73
   34.255       62
   34.270       66
   34.285       61
   34.300       49
   34.315       55
   34.330       63
   34.345       68
   34.360       63
   34.375       68
   34.390       68
   34.405       60
   34.420       86
   34.435       93
   34.450       87
   34.465       88
   34.480       82
   34.495       67
   34.510       74
   34.525       58
   34.540       63
   34.555       73
   34.570       62
   34.585       68
   34.600       75
   34.615       67
   34.630       61
   34.645       65
   34.660       73
   34.675       56
   34.690       64
   34.705       84
   34.720       69
   34.735       79
   34.750       80
   34.765       77
   34.780       60
   34.795       73
   34.810       85
   34.825       76
   34.840       59
   34.855       64
   34.870       65
   34.885       76
   34.900       65
   34.915       65
   34.930       67
   34.945       74
   34.960       68
   34.975       72
   34.990       73
   35.005       70
   35.020       91
   35.035       80
   35.050       72
   35.065       76
   35.080       72
   35.095       81
   35.110       85
   35.125       84
   35.140       81
   35.155       79
   35.170       92
   35.185       77
   35.200       77
   35.215       92
   35.230       90
   35.245       82
   35.260       79
   35.275       72
   35.290       89
   35.305       86
   35.320       94
   35.335      121
   35.350      108
   35.365      111
   35.380      118
   35.395      116
   35.410      107
   35.425      101
   35.440       93
   35.455       89
   35.470       96
   35.485      112
   35.500      118
   35.515      106
   35.530      116
   35.545      113
   35.560      113
   35.575      117
   35.590      107
   35.605      101
   35.620       97
   35.635       90
   35.650       67
   35.665       65
   35.680       81
   35.695       74
   35.710       68
   35.725       58
   35.740       70
   35.755       67
   35.770       61
   35.785       69
   35.800       54
   35.815       62
   35.830       71
   35.845       54
   35.860       65
   35.875       63
   35.890       71
   35.905       58
   35.920       58
   35.935       57
   35.950       54
   35.965       63
   35.980       65
   35.995       58
   36.010       65
   36.025       69
   36.040       64
   36.055       57
   36.070       74
   36.085       63
   36.100       61
   36.115       69
   36.130       59
   36.145       69
   36.160       59
   36.175       66
   36.190       69
   36.205       67
   36.220       73
   36.235       69
   36.250       68
   36.265       79
   36.280       85
   36.295       68
   36.310       55
   36.325       66
   36.340       69
   36.355       71
   36.370       79
   36.385       60
   36.400       54
   36.415       62
   36.430       63
   36.445       80
   36.460       78
   36.475       67
   36.490       64
   36.505       70
   36.520       66
   36.535       75
   36.550       71
   36.565       72
   36.580       63
   36.595       55
   36.610       63
   36.625       83
   36.640       63
   36.655       74
   36.670       71
   36.685       77
   36.700       83
   36.715       84
   36.730       75
   36.745       74
   36.760       78
   36.775       65
   36.790       65
   36.805       70
   36.820       71
   36.835       85
   36.850       70
   36.865       66
   36.880       66
   36.895       65
   36.910       66
   36.925       81
   36.940       76
   36.955       64
   36.970       66
   36.985       76
   37.000       77
   37.015       65
   37.030       82
   37.045       75
   37.060       67
   37.075       61
   37.090       79
   37.105       77
   37.120       65
   37.135       68
   37.150       68
   37.165       62
   37.180       72
   37.195       90
   37.210       75
   37.225       97
   37.240       82
   37.255       75
   37.270       63
   37.285       75
   37.300       65
   37.315       78
   37.330       69
   37.345       72
   37.360       51
   37.375       72
   37.390       70
   37.405       67
   37.420       70
   37.435       63
   37.450       61
   37.465       72
   37.480       61
   37.495       60
   37.510       88
   37.525       68
   37.540       73
   37.555       54
   37.570       57
   37.585       74
   37.600       60
   37.615       57
   37.630       62
   37.645       78
   37.660       79
   37.675       66
   37.690       56
   37.705       64
   37.720       77
   37.735       76
   37.750       59
   37.765       60
   37.780       60
   37.795       66
   37.810       65
   37.825       71
   37.840       76
   37.855       63
   37.870       75
   37.885       84
   37.900       78
   37.915       73
   37.930       85
   37.945       64
   37.960       73
   37.975       75
   37.990       79
   38.005       62
   38.020       58
   38.035       66
   38.050       62
   38.065       52
   38.080       47
   38.095       57
   38.110       68
   38.125       70
   38.140       71
   38.155       65
   38.170       60
   38.185       60
   38.200       61
   38.215       58
   38.230       61
   38.245       61
   38.260       65
   38.275       70
   38.290       68
   38.305       81
   38.320       96
   38.335       86
   38.350       81
   38.365       72
   38.380       74
   38.395       70
   38.410       64
   38.425       71
   38.440       60
   38.455       67
   38.470       67
   38.485       67
   38.500       65
   38.515       73
   38.530       75
   38.545       75
   38.560       83
   38.575       88
   38.590       75
   38.605       80
   38.620       67
   38.635       63
   38.650       64
   38.665       74
   38.680       78
   38.695       66
   38.710       66
   38.725       70
   38.740       66
   38.755       72
   38.770       65
   38.785       63
   38.800       68
   38.815       63
   38.830       56
   38.845       53
   38.860       79
   38.875       58
   38.890       67
   38.905       74
   38.920       80
   38.935       60
   38.950       59
   38.965       56
   38.980       64
   38.995       55
   39.010       55
   39.025       67
   39.040       63
   39.055       67
   39.070       56
   39.085       63
   39.100       65
   39.115       55
   39.130       71
   39.145       66
   39.160       55
   39.175       64
   39.190       70
   39.205       66
   39.220       64
   39.235       62
   39.250       46
   39.265       46
   39.280       58
   39.295       66
   39.310       57
   39.325       62
   39.340       53
   39.355       61
   39.370       73
   39.385       64
   39.400       59
   39.415       63
   39.430       56
   39.445       47
   39.460       56
   39.475       60
   39.490       49
   39.505       59
   39.520       62
   39.535       65
   39.550       59
   39.565       68
   39.580       50
   39.595       60
   39.610       63
   39.625       69
   39.640       59
   39.655       66
   39.670       73
   39.685       67
   39.700       67
   39.715       70
   39.730       74
   39.745       66
   39.760       75
   39.775       51
   39.790       65
   39.805       69
   39.820       76
   39.835       57
   39.850       70
   39.865       60
   39.880       73
   39.895       65
   39.910       66
   39.925       63
   39.940       54
   39.955       52
   39.970       61
   39.985       76
   40.000       61
   40.015       60
   40.030       58
   40.045       64
   40.060       67
   40.075       72
   40.090       54
   40.105       67
   40.120       61
   40.135       65
   40.150       71
   40.165       47
   40.180       59
   40.195       68
   40.210       59
   40.225       48
   40.240       57
   40.255       56
   40.270       50
   40.285       70
   40.300       61
   40.315       60
   40.330       75
   40.345       78
   40.360       62
   40.375       63
   40.390       61
   40.405       62
   40.420       69
   40.435       65
   40.450       63
   40.465       73
   40.480       68
   40.495       71
   40.510       64
   40.525       70
   40.540       65
   40.555       66
   40.570       63
   40.585       65
   40.600       60
   40.615       60
   40.630       60
   40.645       68
   40.660       68
   40.675       82
   40.690       66
   40.705       69
   40.720       64
   40.735       66
   40.750       70
   40.765       76
   40.780       78
   40.795       71
   40.810       77
   40.825       66
   40.840       58
   40.855       60
   40.870       54
   40.885       53
   40.900       62
   40.915       55
   40.930       47
   40.945       62
   40.960       63
   40.975       70
   40.990       58
   41.005       50
   41.020       52
   41.035       53
   41.050       48
   41.065       61
   41.080       65
   41.095       64
   41.110       49
   41.125       61
   41.140       65
   41.155       63
   41.170       63
   41.185       60
   41.200       55
   41.215       49
   41.230       61
   41.245       57
   41.260       67
   41.275       67
   41.290       61
   41.305       61
   41.320       57
   41.335       59
   41.350       57
   41.365       60
   41.380       66
   41.395       55
   41.410       54
   41.425       58
   41.440       59
   41.455       51
   41.470       55
   41.485       65
   41.500       61
   41.515       48
   41.530       59
   41.545       56
   41.560       61
   41.575       67
   41.590       60
   41.605       64
   41.620       62
   41.635       68
   41.650       71
   41.665       54
   41.680       52
   41.695       67
   41.710       63
   41.725       60
   41.740       77
   41.755       58
   41.770       79
   41.785       69
   41.800       72
   41.815       74
   41.830       66
   41.845       51
   41.860       54
   41.875       58
   41.890       71
   41.905       67
   41.920       59
   41.935       75
   41.950       63
   41.965       58
   41.980       69
   41.995       74
   42.010       62
   42.025       64
   42.040       49
   42.055       68
   42.070       68
   42.085       69
   42.100       60
   42.115       54
   42.130       68
   42.145       60
   42.160       54
   42.175       52
   42.190       57
   42.205       72
   42.220       63
   42.235       65
   42.250       61
   42.265       55
   42.280       51
   42.295       57
   42.310       81
   42.325       61
   42.340       61
   42.355       66
   42.370       57
   42.385       60
   42.400       70
   42.415       64
   42.430       66
   42.445       59
   42.460       53
   42.475       63
   42.490       59
   42.505       57
   42.520       54
   42.535       63
   42.550       77
   42.565       65
   42.580       68
   42.595       55
   42.610       63
   42.625       57
   42.640       60
   42.655       74
   42.670       45
   42.685       52
   42.700       69
   42.715       67
   42.730       59
   42.745       58
   42.760       60
   42.775       62
   42.790       64
   42.805       54
   42.820       70
   42.835       56
   42.850       55
   42.865       70
   42.880       51
   42.895       55
   42.910       63
   42.925       64
   42.940       47
   42.955       52
   42.970       58
   42.985       63
   43.000       56
   43.015       63
   43.030       65
   43.045       50
   43.060       60
   43.075       56
   43.090       63
   43.105       53
   43.120       57
   43.135       61
   43.150       44
   43.165       54
   43.180       61
   43.195       56
   43.210       64
   43.225       68
   43.240       54
   43.255       45
   43.270       56
   43.285       51
   43.300       60
   43.315       58
   43.330       67
   43.345       65
   43.360       50
   43.375       57
   43.390       48
   43.405       60
   43.420       51
   43.435       62
   43.450       64
   43.465       61
   43.480       61
   43.495       68
   43.510       65
   43.525       53
   43.540       64
   43.555       62
   43.570       55
   43.585       59
   43.600       64
   43.615       63
   43.630       69
   43.645       64
   43.660       58
   43.675       74
   43.690       62
   43.705       56
   43.720       59
   43.735       60
   43.750       54
   43.765       57
   43.780       52
   43.795       63
   43.810       57
   43.825       54
   43.840       49
   43.855       63
   43.870       61
   43.885       65
   43.900       63
   43.915       57
   43.930       53
   43.945       58
   43.960       62
   43.975       52
   43.990       56
   44.005       54
   44.020       54
   44.035       54
   44.050       65
   44.065       75
   44.080       68
   44.095       62
   44.110       54
   44.125       62
   44.140       62
   44.155       57
   44.170       63
   44.185       51
   44.200       58
   44.215       59
   44.230       64
   44.245       63
   44.260       56
   44.275       63
   44.290       56
   44.305       68
   44.320       56
   44.335       56
   44.350       70
   44.365       61
   44.380       49
   44.395       57
   44.410       64
   44.425       59
   44.440       62
   44.455       59
   44.470       64
   44.485       59
   44.500       54
   44.515       57
   44.530       47
   44.545       64
   44.560       55
   44.575       53
   44.590       52
   44.605       59
   44.620       64
   44.635       59
   44.650       68
   44.665       78
   44.680       72
   44.695       69
   44.710       80
   44.725       70
   44.740       58
   44.755       61
   44.770       59
   44.785       60
   44.800       59
   44.815       59
   44.830       67
   44.845       67
   44.860       69
   44.875       51
   44.890       59
   44.905       64
   44.920       76
   44.935       67
   44.950       56
   44.965       74
   44.980       74
   44.995       75
   45.010       82
   45.025       70
   45.040       66
   45.055       63
   45.070       78
   45.085       70
   45.100       64
   45.115       75
   45.130       62
   45.145       57
   45.160       68
   45.175       75
   45.190       59
   45.205       59
   45.220       62
   45.235       72
   45.250       60
   45.265       62
   45.280       64
   45.295       68
   45.310       60
   45.325       63
   45.340       62
   45.355       67
   45.370       51
   45.385       70
   45.400       63
   45.415       54
   45.430       60
   45.445       57
   45.460       58
   45.475       52
   45.490       64
   45.505       63
   45.520       58
   45.535       57
   45.550       70
   45.565       63
   45.580       60
   45.595       53
   45.610       53
   45.625       62
   45.640       53
   45.655       54
   45.670       52
   45.685       50
   45.700       54
   45.715       57
   45.730       46
   45.745       53
   45.760       73
   45.775       66
   45.790       57
   45.805       60
   45.820       57
   45.835       59
   45.850       54
   45.865       60
   45.880       73
   45.895       57
   45.910       52
   45.925       56
   45.940       63
   45.955       52
   45.970       47
   45.985       68
