    4.000      232
    4.015      198
    4.030      200
    4.045      221
    4.060      198
    4.075      198
    4.090      194
    4.105      186
    4.120      209
    4.135      229
    4.150      225
    4.165      210
    4.180      218
    4.195      201
    4.210      181
    4.225      201
    4.240      212
    4.255      204
    4.270      215
    4.285      214
    4.300      226
    4.315      222
    4.330      215
    4.345      204
    4.360      194
    4.375      195
    4.390      203
    4.405      195
    4.420      201
    4.435      190
    4.450      203
    4.465      189
    4.480      203
    4.495      205
    4.510      183
    4.525      185
    4.540      200
    4.555      183
    4.570      174
    4.585      196
    4.600      194
    4.615      196
    4.630      191
    4.645      195
    4.660      191
    4.675      198
    4.690      203
    4.705      198
    4.720      198
    4.735      223
    4.750      206
    4.765      194
    4.780      176
    4.795      202
    4.810      186
    4.825      164
    4.840      177
    4.855      195
    4.870      163
    4.885      192
    4.900      197
    4.915      200
    4.930      194
    4.945      192
    4.960      191
    4.975      203
    4.990      190
    5.005      185
    5.020      166
    5.035      197
    5.050      186
    5.065      186
    5.080      193
    5.095      203
    5.110      187
    5.125      194
    5.140      200
    5.155      181
    5.170      199
    5.185      188
    5.200      183
    5.215      197
    5.230      184
    5.245      182
    5.260      184
    5.275      196
    5.290      203
    5.305      189
    5.320      181
    5.335      181
    5.350      190
    5.365      195
    5.380      196
    5.395      189
    5.410      189
    5.425      191
    5.440      184
    5.455      171
    5.470      168
    5.485      194
    5.500      178
    5.515      201
    5.530      195
    5.545      186
    5.560      183
    5.575      176
    5.590      187
    5.605      174
    5.620      183
    5.635      185
    5.650      185
    5.665      197
    5.680      210
    5.695      190
    5.710      196
    5.725      209
    5.740      198
    5.755      181
    5.770      195
    5.785      183
    5.800      195
    5.815      182
    5.830      192
    5.845      202
    5.860      196
    5.875      198
    5.890      184
    5.905      190
    5.920      196
    5.935      189
    5.950      204
    5.965      197
    5.980      197
    5.995      213
    6.010      209
    6.025      201
    6.040      189
    6.055      198
    6.070      211
    6.085      172
    6.100      192
    6.115      178
    6.130      194
    6.145      197
    6.160      194
    6.175      204
    6.190      200
    6.205      207
    6.220      206
    6.235      189
    6.250      194
    6.265      211
    6.280      228
    6.295      228
    6.310      240
    6.325      227
    6.340      252
    6.355      248
    6.370      238
    6.385      269
    6.400      286
    6.415      272
    6.430      295
    6.445      295
    6.460      297
    6.475      296
    6.490      348
    6.505      369
    6.520      411
    6.535      458
    6.550      410
    6.565      408
    6.580      459
    6.595      474
    6.610      423
    6.625      320
    6.640      237
    6.655      196
    6.670      181
    6.685      206
    6.700      172
    6.715      187
    6.730      183
    6.745      188
    6.760      169
    6.775      167
    6.790      174
    6.805      199
    6.820      173
    6.835      180
    6.850      205
    6.865      190
    6.880      195
    6.895      193
    6.910      193
    6.925      200
    6.940      192
    6.955      205
    6.970      205
    6.985      202
    7.000      198
    7.015      211
    7.030      218
    7.045      251
    7.060      238
    7.075      260
    7.090      270
    7.105      298
    7.120      311
    7.135      260
    7.150      236
    7.165      178
    7.180      168
    7.195      176
    7.210      181
    7.225      168
    7.240      173
    7.255      174
    7.270      171
    7.285      171
    7.300      199
    7.315      161
    7.330      175
    7.345      183
    7.360      182
    7.375      193
    7.390      192
    7.405      190
    7.420      184
    7.435      193
    7.450      200
    7.465      188
    7.480      188
    7.495      205
    7.510      205
    7.525      200
    7.540      218
    7.555      211
    7.570      254
    7.585      224
    7.600      204
    7.615      211
    7.630      195
    7.645      176
    7.660      182
    7.675      179
    7.690      175
    7.705      164
    7.720      166
    7.735      183
    7.750      203
    7.765      164
    7.780      177
    7.795      171
    7.810      184
    7.825      176
    7.840      169
    7.855      166
    7.870      161
    7.885      166
    7.900      180
    7.915      161
    7.930      177
    7.945      176
    7.960      179
    7.975      155
    7.990      162
    8.005      165
    8.020      166
    8.035      166
    8.050      176
    8.065      178
    8.080      182
    8.095      173
    8.110      170
    8.125      190
    8.140      181
    8.155      174
    8.170      166
    8.185      174
    8.200      180
    8.215      182
    8.230      187
    8.245      174
    8.260      184
    8.275      182
    8.290      175
    8.305      165
    8.320      151
    8.335      173
    8.350      192
    8.365      164
    8.380      152
    8.395      169
    8.410      187
    8.425      186
    8.440      184
    8.455      170
    8.470      187
    8.485      200
    8.500      193
    8.515      199
    8.530      181
    8.545      180
    8.560      180
    8.575      191
    8.590      188
    8.605      169
    8.620      180
    8.635      191
    8.650      178
    8.665      193
    8.680      175
    8.695      169
    8.710      188
    8.725      177
    8.740      184
    8.755      180
    8.770      173
    8.785      179
    8.800      162
    8.815      170
    8.830      167
    8.845      187
    8.860      173
    8.875      170
    8.890      165
    8.905      187
    8.920      196
    8.935      194
    8.950      177
    8.965      185
    8.980      189
    8.995      199
    9.010      197
    9.025      203
    9.040      205
    9.055      195
    9.070      187
    9.085      168
    9.100      191
    9.115      180
    9.130      177
    9.145      188
    9.160      187
    9.175      161
    9.190      178
    9.205      184
    9.220      185
    9.235      198
    9.250      185
    9.265      178
    9.280      192
    9.295      181
    9.310      174
    9.325      196
    9.340      176
    9.355      181
    9.370      196
    9.385      191
    9.400      186
    9.415      186
    9.430      199
    9.445      195
    9.460      168
    9.475      195
    9.490      179
    9.505      183
    9.520      204
    9.535      195
    9.550      192
    9.565      201
    9.580      206
    9.595      214
    9.610      215
    9.625      213
    9.640      204
    9.655      221
    9.670      228
    9.685      238
    9.700      236
    9.715      250
    9.730      223
    9.745      221
    9.760      191
    9.775      184
    9.790      198
    9.805      194
    9.820      180
    9.835      173
    9.850      198
    9.865      168
    9.880      166
    9.895      170
    9.910      183
    9.925      173
    9.940      173
    9.955      182
    9.970      177
    9.985      169
   10.000      188
   10.015      188
   10.030      188
   10.045      187
   10.060      184
   10.075      183
   10.090      190
   10.105      197
   10.120      176
   10.135      210
   10.150      219
   10.165      231
   10.180      221
   10.195      227
   10.210      223
   10.225      256
   10.240      259
   10.255      268
   10.270      266
   10.285      292
   10.300      313
   10.315      327
   10.330      361
   10.345      401
   10.360      384
   10.375      390
   10.390      357
   10.405      344
   10.420      339
   10.435      288
   10.450      251
   10.465      221
   10.480      190
   10.495      195
   10.510      197
   10.525      198
   10.540      188
   10.555      191
   10.570      201
   10.585      208
   10.600      198
   10.615      188
   10.630      203
   10.645      235
   10.660      224
   10.675      215
   10.690      232
   10.705      258
   10.720      232
   10.735      248
   10.750      278
   10.765      264
   10.780      224
   10.795      228
   10.810      207
   10.825      207
   10.840      202
   10.855      189
   10.870      185
   10.885      187
   10.900      201
   10.915      202
   10.930      214
   10.945      217
   10.960      224
   10.975      259
   10.990      242
   11.005      212
   11.020      227
   11.035      258
   11.050      283
   11.065      307
   11.080      332
   11.095      310
   11.110      373
   11.125      389
   11.140      380
   11.155      303
   11.170      249
   11.185      225
   11.200      218
   11.215      215
   11.230      212
   11.245      201
   11.260      222
   11.275      246
   11.290      270
   11.305      280
   11.320      253
   11.335      220
   11.350      199
   11.365      202
   11.380      184
   11.395      169
   11.410      168
   11.425      169
   11.440      179
   11.455      188
   11.470      176
   11.485      167
   11.500      167
   11.515      187
   11.530      196
   11.545      164
   11.560      179
   11.575      186
   11.590      180
   11.605      177
   11.620      193
   11.635      203
   11.650      200
   11.665      194
   11.680      207
   11.695      208
   11.710      240
   11.725      240
   11.740      280
   11.755      302
   11.770      330
   11.785      337
   11.800      292
   11.815      270
   11.830      219
   11.845      223
   11.860      197
   11.875      214
   11.890      214
   11.905      235
   11.920      235
   11.935      240
   11.950      273
   11.965      232
   11.980      203
   11.995      186
   12.010      173
   12.025      170
   12.040      183
   12.055      194
   12.070      194
   12.085      161
   12.100      170
   12.115      175
   12.130      172
   12.145      154
   12.160      172
   12.175      164
   12.190      173
   12.205      152
   12.220      185
   12.235      190
   12.250      183
   12.265      177
   12.280      191
   12.295      203
   12.310      216
   12.325      228
   12.340      273
   12.355      309
   12.370      359
   12.385      383
   12.400      444
   12.415      541
   12.430      597
   12.445      702
   12.460      818
   12.475     1022
   12.490     1162
   12.505     1382
   12.520     1786
   12.535     2080
   12.550     1907
   12.565     1514
   12.580     1177
   12.595     1205
   12.610     1297
   12.625     1321
   12.640     1247
   12.655     1006
   12.670      729
   12.685      488
   12.700      310
   12.715      262
   12.730      236
   12.745      229
   12.760      250
   12.775      251
   12.790      231
   12.805      256
   12.820      289
   12.835      326
   12.850      376
   12.865      383
   12.880      455
   12.895      497
   12.910      638
   12.925      752
   12.940      720
   12.955      615
   12.970      542
   12.985      576
   13.000      623
   13.015      678
   13.030      792
   13.045      982
   13.060     1215
   13.075     1571
   13.090     2028
   13.105     2203
   13.120     1974
   13.135     1671
   13.150     1563
   13.165     1738
   13.180     2019
   13.195     2359
   13.210     2951
   13.225     3708
   13.240     3720
   13.255     2844
   13.270     1650
   13.285      849
   13.300      574
   13.315      412
   13.330      397
   13.345      425
   13.360      398
   13.375      409
   13.390      428
   13.405      500
   13.420      578
   13.435      671
   13.450      807
   13.465      806
   13.480      852
   13.495      893
   13.510      842
   13.525      602
   13.540      387
   13.555      289
   13.570      250
   13.585      234
   13.600      256
   13.615      255
   13.630      280
   13.645      288
   13.660      286
   13.675      330
   13.690      385
   13.705      459
   13.720      495
   13.735      505
   13.750      418
   13.765      313
   13.780      264
   13.795      211
   13.810      180
   13.825      177
   13.840      162
   13.855      167
   13.870      172
   13.885      140
   13.900      149
   13.915      159
   13.930      162
   13.945      159
   13.960      163
   13.975      164
   13.990      152
   14.005      168
   14.020      158
   14.035      180
   14.050      195
   14.065      228
   14.080      219
   14.095      236
   14.110      300
   14.125      298
   14.140      352
   14.155      441
   14.170      487
   14.185      500
   14.200      465
   14.215      417
   14.230      408
   14.245      467
   14.260      524
   14.275      562
   14.290      596
   14.305      589
   14.320      674
   14.335      702
   14.350      835
   14.365      997
   14.380     1014
   14.395      852
   14.410      598
   14.425      388
   14.440      273
   14.455      218
   14.470      179
   14.485      177
   14.500      158
   14.515      160
   14.530      148
   14.545      149
   14.560      150
   14.575      136
   14.590      152
   14.605      164
   14.620      173
   14.635      176
   14.650      167
   14.665      155
   14.680      155
   14.695      156
   14.710      184
   14.725      179
   14.740      199
   14.755      217
   14.770      254
   14.785      268
   14.800      322
   14.815      357
   14.830      457
   14.845      537
   14.860      632
   14.875      774
   14.890      839
   14.905      966
   14.920      997
   14.935     1176
   14.950     1398
   14.965     1773
   14.980     1799
   14.995     1404
   15.010      892
   15.025      533
   15.040      379
   15.055      337
   15.070      308
   15.085      309
   15.100      312
   15.115      343
   15.130      400
   15.145      441
   15.160      478
   15.175      533
   15.190      611
   15.205      576
   15.220      482
   15.235      469
   15.250      456
   15.265      435
   15.280      385
   15.295      350
   15.310      291
   15.325      254
   15.340      257
   15.355      292
   15.370      323
   15.385      350
   15.400      409
   15.415      458
   15.430      549
   15.445      599
   15.460      740
   15.475      783
   15.490      679
   15.505      486
   15.520      372
   15.535      336
   15.550      368
   15.565      363
   15.580      366
   15.595      425
   15.610      509
   15.625      550
   15.640      669
   15.655      748
   15.670      645
   15.685      515
   15.700      388
   15.715      273
   15.730      252
   15.745      206
   15.760      192
   15.775      208
   15.790      209
   15.805      175
   15.820      220
   15.835      253
   15.850      297
   15.865      312
   15.880      367
   15.895      387
   15.910      465
   15.925      475
   15.940      594
   15.955      689
   15.970      939
   15.985     1092
   16.000     1003
   16.015      773
   16.030      553
   16.045      402
   16.060      310
   16.075      310
   16.090      341
   16.105      339
   16.120      368
   16.135      402
   16.150      512
   16.165      569
   16.180      651
   16.195      651
   16.210      572
   16.225      623
   16.240      688
   16.255      802
   16.270     1031
   16.285     1242
   16.300     1197
   16.315     1003
   16.330      776
   16.345      663
   16.360      649
   16.375      718
   16.390      871
   16.405      991
   16.420     1143
   16.435     1151
   16.450     1039
   16.465      818
   16.480      730
   16.495      699
   16.510      717
   16.525      881
   16.540     1045
   16.555     1266
   16.570     1275
   16.585     1166
   16.600      918
   16.615      843
   16.630      836
   16.645      900
   16.660      935
   16.675      898
   16.690      898
   16.705      771
   16.720      572
   16.735      421
   16.750      319
   16.765      275
   16.780      300
   16.795      318
   16.810      337
   16.825      340
   16.840      374
   16.855      423
   16.870      549
   16.885      635
   16.900      678
   16.915      645
   16.930      558
   16.945      406
   16.960      323
   16.975      300
   16.990      288
   17.005      310
   17.020      346
   17.035      384
   17.050      413
   17.065      474
   17.080      504
   17.095      582
   17.110      594
   17.125      509
   17.140      399
   17.155      370
   17.170      357
   17.185      330
   17.200      307
   17.215      313
   17.230      313
   17.245      349
   17.260      373
   17.275      425
   17.290      454
   17.305      560
   17.320      636
   17.335      622
   17.350      474
   17.365      336
   17.380      231
   17.395      214
   17.410      199
   17.425      166
   17.440      183
   17.455      216
   17.470      227
   17.485      221
   17.500      258
   17.515      294
   17.530      309
   17.545      321
   17.560      302
   17.575      347
   17.590      379
   17.605      410
   17.620      367
   17.635      312
   17.650      235
   17.665      205
   17.680      202
   17.695      173
   17.710      173
   17.725      189
   17.740      164
   17.755      162
   17.770      160
   17.785      150
   17.800      134
   17.815      151
   17.830      135
   17.845      133
   17.860      139
   17.875      119
   17.890      147
   17.905      129
   17.920      124
   17.935      148
   17.950      138
   17.965      123
   17.980      149
   17.995      187
   18.010      178
   18.025      195
   18.040      229
   18.055      243
   18.070      286
   18.085      322
   18.100      338
   18.115      341
   18.130      375
   18.145      414
   18.160      442
   18.175      417
   18.190      318
   18.205      237
   18.220      198
   18.235      174
   18.250      165
   18.265      178
   18.280      198
   18.295      210
   18.310      220
   18.325      215
   18.340      252
   18.355      308
   18.370      362
   18.385      434
   18.400      523
   18.415      569
   18.430      530
   18.445      499
   18.460      479
   18.475      481
   18.490      587
   18.505      694
   18.520      774
   18.535      826
   18.550      763
   18.565      620
   18.580      474
   18.595      338
   18.610      318
   18.625      301
   18.640      301
   18.655      326
   18.670      319
   18.685      337
   18.700      367
   18.715      397
   18.730      484
   18.745      523
   18.760      513
   18.775      427
   18.790      411
   18.805      384
   18.820      352
   18.835      345
   18.850      259
   18.865      221
   18.880      178
   18.895      162
   18.910      135
   18.925      140
   18.940      144
   18.955      167
   18.970      146
   18.985      143
   19.000      156
   19.015      146
   19.030      147
   19.045      150
   19.060      134
   19.075      147
   19.090      118
   19.105      124
   19.120      133
   19.135      148
   19.150      119
   19.165      138
   19.180      123
   19.195      118
   19.210      122
   19.225      133
   19.240      152
   19.255      147
   19.270      132
   19.285      147
   19.300      168
   19.315      188
   19.330      177
   19.345      191
   19.360      240
   19.375      257
   19.390      270
   19.405      349
   19.420      375
   19.435      460
   19.450      452
   19.465      449
   19.480      415
   19.495      407
   19.510      341
   19.525      315
   19.540      251
   19.555      246
   19.570      269
   19.585      302
   19.600      326
   19.615      357
   19.630      431
   19.645      525
   19.660      677
   19.675      795
   19.690      983
   19.705     1176
   19.720     1252
   19.735     1177
   19.750      954
   19.765      743
   19.780      643
   19.795      615
   19.810      688
   19.825      789
   19.840      853
   19.855      881
   19.870      774
   19.885      646
   19.900      514
   19.915      498
   19.930      430
   19.945      342
   19.960      299
   19.975      273
   19.990      249
   20.005      250
   20.020      295
   20.035      325
   20.050      354
   20.065      339
   20.080      314
   20.095      277
   20.110      204
   20.125      188
   20.140      171
   20.155      162
   20.170      141
   20.185      130
   20.200      135
   20.215      133
   20.230      144
   20.245      125
   20.260      142
   20.275      142
   20.290      144
   20.305      144
   20.320      161
   20.335      166
   20.350      163
   20.365      184
   20.380      192
   20.395      202
   20.410      215
   20.425      202
   20.440      195
   20.455      204
   20.470      205
   20.485      194
   20.500      200
   20.515      209
   20.530      248
   20.545      285
   20.560      371
   20.575      427
   20.590      482
   20.605      480
   20.620      461
   20.635      440
   20.650      444
   20.665      461
   20.680      480
   20.695      471
   20.710      416
   20.725      338
   20.740      257
   20.755      247
   20.770      222
   20.785      218
   20.800      219
   20.815      218
   20.830      226
   20.845      217
   20.860      187
   20.875      197
   20.890      228
   20.905      222
   20.920      215
   20.935      221
   20.950      222
   20.965      199
   20.980      187
   20.995      189
   21.010      174
   21.025      187
   21.040      216
   21.055      225
   21.070      224
   21.085      208
   21.100      196
   21.115      164
   21.130      144
   21.145      156
   21.160      151
   21.175      158
   21.190      143
   21.205      155
   21.220      157
   21.235      176
   21.250      182
   21.265      196
   21.280      220
   21.295      246
   21.310      286
   21.325      313
   21.340      369
   21.355      476
   21.370      554
   21.385      617
   21.400      675
   21.415      715
   21.430      604
   21.445      530
   21.460      477
   21.475      466
   21.490      518
   21.505      540
   21.520      637
   21.535      769
   21.550      978
   21.565     1178
   21.580     1460
   21.595     1843
   21.610     1836
   21.625     1511
   21.640     1170
   21.655      784
   21.670      563
   21.685      514
   21.700      539
   21.715      522
   21.730      497
   21.745      427
   21.760      355
   21.775      276
   21.790      219
   21.805      201
   21.820      172
   21.835      165
   21.850      174
   21.865      165
   21.880      149
   21.895      175
   21.910      185
   21.925      169
   21.940      174
   21.955      159
   21.970      213
   21.985      198
   22.000      188
   22.015      204
   22.030      201
   22.045      210
   22.060      238
   22.075      229
   22.090      213
   22.105      216
   22.120      222
   22.135      240
   22.150      249
   22.165      292
   22.180      319
   22.195      358
   22.210      362
   22.225      367
   22.240      322
   22.255      291
   22.270      233
   22.285      250
   22.300      254
   22.315      267
   22.330      313
   22.345      365
   22.360      432
   22.375      488
   22.390      532
   22.405      613
   22.420      574
   22.435      459
   22.450      376
   22.465      322
   22.480      288
   22.495      286
   22.510      308
   22.525      364
   22.540      397
   22.555      400
   22.570      442
   22.585      488
   22.600      569
   22.615      618
   22.630      665
   22.645      631
   22.660      585
   22.675      540
   22.690      529
   22.705      466
   22.720      408
   22.735      379
   22.750      307
   22.765      289
   22.780      261
   22.795      301
   22.810      337
   22.825      369
   22.840      387
   22.855      413
   22.870      417
   22.885      341
   22.900      313
   22.915      243
   22.930      254
   22.945      277
   22.960      270
   22.975      305
   22.990      337
   23.005      325
   23.020      291
   23.035      257
   23.050      206
   23.065      206
   23.080      197
   23.095      193
   23.110      221
   23.125      224
   23.140      227
   23.155      239
   23.170      290
   23.185      292
   23.200      317
   23.215      305
   23.230      266
   23.245      234
   23.260      187
   23.275      163
   23.290      151
   23.305      131
   23.320      137
   23.335      144
   23.350      144
   23.365      135
   23.380      150
   23.395      156
   23.410      139
   23.425      130
   23.440      138
   23.455      136
   23.470      139
   23.485      133
   23.500      135
   23.515      145
   23.530      141
   23.545      145
   23.560      155
   23.575      172
   23.590      178
   23.605      196
   23.620      175
   23.635      173
   23.650      171
   23.665      183
   23.680      192
   23.695      205
   23.710      215
   23.725      234
   23.740      242
   23.755      272
   23.770      303
   23.785      293
   23.800      280
   23.815      252
   23.830      215
   23.845      172
   23.860      166
   23.875      179
   23.890      159
   23.905      186
   23.920      180
   23.935      214
   23.950      278
   23.965      286
   23.980      330
   23.995      375
   24.010      415
   24.025      392
   24.040      378
   24.055      335
   24.070      275
   24.085      197
   24.100      218
   24.115      202
   24.130      220
   24.145      232
   24.160      226
   24.175      211
   24.190      196
   24.205      208
   24.220      228
   24.235      238
   24.250      270
   24.265      263
   24.280      240
   24.295      222
   24.310      201
   24.325      197
   24.340      176
   24.355      168
   24.370      162
   24.385      194
   24.400      199
   24.415      202
   24.430      199
   24.445      172
   24.460      169
   24.475      173
   24.490      188
   24.505      175
   24.520      186
   24.535      185
   24.550      170
   24.565      172
   24.580      168
   24.595      140
   24.610      128
   24.625      146
   24.640      179
   24.655      198
   24.670      215
   24.685      244
   24.700      309
   24.715      305
   24.730      334
   24.745      331
   24.760      327
   24.775      306
   24.790      303
   24.805      280
   24.820      310
   24.835      291
   24.850      312
   24.865      289
   24.880      303
   24.895      306
   24.910      342
   24.925      345
   24.940      369
   24.955      354
   24.970      285
   24.985      233
   25.000      214
   25.015      197
   25.030      192
   25.045      175
   25.060      149
   25.075      141
   25.090      161
   25.105      176
   25.120      171
   25.135      199
   25.150      233
   25.165      252
   25.180      290
   25.195      286
   25.210      287
   25.225      280
   25.240      272
   25.255      287
   25.270      242
   25.285      217
   25.300      253
   25.315      285
   25.330      307
   25.345      346
   25.360      365
   25.375      444
   25.390      489
   25.405      500
   25.420      554
   25.435      575
   25.450      577
   25.465      579
   25.480      458
   25.495      364
   25.510      309
   25.525      269
   25.540      242
   25.555      250
   25.570      295
   25.585      296
   25.600      322
   25.615      336
   25.630      323
   25.645      356
   25.660      338
   25.675      310
   25.690      247
   25.705      217
   25.720      186
   25.735      177
   25.750      186
   25.765      218
   25.780      211
   25.795      199
   25.810      222
   25.825      222
   25.840      254
   25.855      269
   25.870      283
   25.885      308
   25.900      290
   25.915      272
   25.930      254
   25.945      223
   25.960      195
   25.975      201
   25.990      182
   26.005      174
   26.020      175
   26.035      189
   26.050      182
   26.065      173
   26.080      183
   26.095      182
   26.110      197
   26.125      198
   26.140      172
   26.155      165
   26.170      163
   26.185      143
   26.200      136
   26.215      132
   26.230      138
   26.245      128
   26.260      133
   26.275      147
   26.290      150
   26.305      160
   26.320      193
   26.335      211
   26.350      211
   26.365      294
   26.380      322
   26.395      292
   26.410      248
   26.425      215
   26.440      197
   26.455      175
   26.470      157
   26.485      156
   26.500      155
   26.515      155
   26.530      159
   26.545      188
   26.560      226
   26.575      237
   26.590      273
   26.605      332
   26.620      385
   26.635      442
   26.650      515
   26.665      549
   26.680      563
   26.695      556
   26.710      562
   26.725      529
   26.740      453
   26.755      397
   26.770      331
   26.785      310
   26.800      260
   26.815      245
   26.830      203
   26.845      188
   26.860      199
   26.875      183
   26.890      198
   26.905      200
   26.920      206
   26.935      217
   26.950      225
   26.965      216
   26.980      226
   26.995      210
   27.010      171
   27.025      181
   27.040      166
   27.055      177
   27.070      192
   27.085      190
   27.100      198
   27.115      209
   27.130      193
   27.145      201
   27.160      237
   27.175      227
   27.190      271
   27.205      303
   27.220      361
   27.235      425
   27.250      416
   27.265      442
   27.280      432
   27.295      451
   27.310      417
   27.325      461
   27.340      453
   27.355      425
   27.370      447
   27.385      463
   27.400      450
   27.415      419
   27.430      409
   27.445      350
   27.460      339
   27.475      272
   27.490      243
   27.505      219
   27.520      238
   27.535      249
   27.550      241
   27.565      254
   27.580      282
   27.595      289
   27.610      287
   27.625      258
   27.640      274
   27.655      274
   27.670      271
   27.685      217
   27.700      219
   27.715      183
   27.730      180
   27.745      172
   27.760      152
   27.775      176
   27.790      186
   27.805      211
   27.820      225
   27.835      219
   27.850      276
   27.865      303
   27.880      314
   27.895      283
   27.910      265
   27.925      232
   27.940      232
   27.955      241
   27.970      249
   27.985      249
   28.000      250
   28.015      238
   28.030      242
   28.045      288
   28.060      300
   28.075      282
   28.090      245
   28.105      256
   28.120      237
   28.135      222
   28.150      216
   28.165      216
   28.180      192
   28.195      178
   28.210      170
   28.225      156
   28.240      155
   28.255      129
   28.270      147
   28.285      157
   28.300      154
   28.315      153
   28.330      146
   28.345      179
   28.360      165
   28.375      193
   28.390      220
   28.405      244
   28.420      256
   28.435      226
   28.450      249
   28.465      253
   28.480      209
   28.495      211
   28.510      223
   28.525      198
   28.540      195
   28.555      228
   28.570      258
   28.585      287
   28.600      281
   28.615      313
   28.630      306
   28.645      303
   28.660      291
   28.675      298
   28.690      274
   28.705      246
   28.720      256
   28.735      237
   28.750      228
   28.765      234
   28.780      259
   28.795      264
   28.810      262
   28.825      241
   28.840      242
   28.855      229
   28.870      205
   28.885      198
   28.900      197
   28.915      201
   28.930      204
   28.945      213
   28.960      207
   28.975      215
   28.990      204
   29.005      206
   29.020      211
   29.035      207
   29.050      187
   29.065      168
   29.080      170
   29.095      170
   29.110      161
   29.125      188
   29.140      182
   29.155      189
   29.170      192
   29.185      210
   29.200      226
   29.215      233
   29.230      253
   29.245      259
   29.260      250
   29.275      251
   29.290      240
   29.305      261
   29.320      312
   29.335      332
   29.350      356
   29.365      391
   29.380      407
   29.395      381
   29.410      324
   29.425      294
   29.440      267
   29.455      260
   29.470      251
   29.485      239
   29.500      227
   29.515      233
   29.530      207
   29.545      229
   29.560      272
   29.575      264
   29.590      228
   29.605      232
   29.620      200
   29.635      208
   29.650      192
   29.665      161
   29.680      173
   29.695      170
   29.710      156
   29.725      171
   29.740      188
   29.755      191
   29.770      190
   29.785      201
   29.800      187
   29.815      175
   29.830      187
   29.845      185
   29.860      195
   29.875      159
   29.890      174
   29.905      174
   29.920      168
   29.935      141
   29.950      170
   29.965      192
   29.980      185
   29.995      208
   30.010      192
   30.025      176
   30.040      200
   30.055      205
   30.070      194
   30.085      188
   30.100      195
   30.115      207
   30.130      188
   30.145      164
   30.160      159
   30.175      193
   30.190      176
   30.205      199
   30.220      208
   30.235      227
   30.250      238
   30.265      221
   30.280      247
   30.295      238
   30.310      272
   30.325      319
   30.340      301
   30.355      248
   30.370      228
   30.385      203
   30.400      188
   30.415      177
   30.430      166
   30.445      157
   30.460      157
   30.475      158
   30.490      152
   30.505      142
   30.520      144
   30.535      170
   30.550      152
   30.565      173
   30.580      198
   30.595      220
   30.610      222
   30.625      241
   30.640      278
   30.655      287
   30.670      298
   30.685      306
   30.700      284
   30.715      291
   30.730      284
   30.745      239
   30.760      233
   30.775      254
   30.790      265
   30.805      254
   30.820      216
   30.835      219
   30.850      205
   30.865      225
   30.880      186
   30.895      176
   30.910      170
   30.925      181
   30.940      175
   30.955      181
   30.970      185
   30.985      201
   31.000      214
   31.015      218
   31.030      211
   31.045      232
   31.060      246
   31.075      266
   31.090      244
   31.105      249
   31.120      213
   31.135      197
   31.150      207
   31.165      217
   31.180      220
   31.195      212
   31.210      238
   31.225      224
   31.240      243
   31.255      288
   31.270      292
   31.285      278
   31.300      251
   31.315      246
   31.330      214
   31.345      185
   31.360      214
   31.375      235
   31.390      233
   31.405      270
   31.420      277
   31.435      308
   31.450      263
   31.465      259
   31.480      240
   31.495      286
   31.510      300
   31.525      341
   31.540      351
   31.555      420
   31.570      429
   31.585      416
   31.600      365
   31.615      325
   31.630      293
   31.645      269
   31.660      240
   31.675      242
   31.690      263
   31.705      249
   31.720      257
   31.735      264
   31.750      259
   31.765      268
   31.780      255
   31.795      254
   31.810      235
   31.825      231
   31.840      225
   31.855      214
   31.870      197
   31.885      212
   31.900      166
   31.915      175
   31.930      161
   31.945      154
   31.960      171
   31.975      168
   31.990      163
   32.005      157
   32.020      176
   32.035      185
   32.050      163
   32.065      168
   32.080      184
   32.095      170
   32.110      188
   32.125      168
   32.140      152
   32.155      146
   32.170      137
   32.185      139
   32.200      140
   32.215      136
   32.230      130
   32.245      152
   32.260      163
   32.275      162
   32.290      168
   32.305      163
   32.320      160
   32.335      166
   32.350      156
   32.365      151
   32.380      145
   32.395      160
   32.410      163
   32.425      162
   32.440      168
   32.455      172
   32.470      178
   32.485      169
   32.500      169
   32.515      181
   32.530      196
   32.545      185
   32.560      193
   32.575      226
   32.590      260
   32.605      290
   32.620      340
   32.635      380
   32.650      381
   32.665      399
   32.680      379
   32.695      357
   32.710      288
   32.725      275
   32.740      237
   32.755      208
   32.770      199
   32.785      179
   32.800      187
   32.815      194
   32.830      184
   32.845      196
   32.860      181
   32.875      205
   32.890      198
   32.905      197
   32.920      176
   32.935      210
   32.950      191
   32.965      188
   32.980      182
   32.995      192
   33.010      230
   33.025      234
   33.040      212
   33.055      232
   33.070      247
   33.085      242
   33.100      249
   33.115      273
   33.130      314
   33.145      334
   33.160      346
   33.175      331
   33.190      315
   33.205      297
   33.220      284
   33.235      269
   33.250      283
   33.265      268
   33.280      265
   33.295      264
   33.310      230
   33.325      174
   33.340      176
   33.355      211
   33.370      197
   33.385      199
   33.400      220
   33.415      220
   33.430      259
   33.445      273
   33.460      298
   33.475      352
   33.490      378
   33.505      353
   33.520      332
   33.535      268
   33.550      246
   33.565      233
   33.580      195
   33.595      219
   33.610      245
   33.625      245
   33.640      285
   33.655      273
   33.670      248
   33.685      219
   33.700      204
   33.715      232
   33.730      240
   33.745      212
   33.760      196
   33.775      205
   33.790      166
   33.805      161
   33.820      184
   33.835      185
   33.850      191
   33.865      174
   33.880      153
   33.895      178
   33.910      161
   33.925      154
   33.940      151
   33.955      150
   33.970      153
   33.985      147
   34.000      166
   34.015      150
   34.030      143
   34.045      167
   34.060      169
   34.075      201
   34.090      222
   34.105      236
   34.120      230
   34.135      261
   34.150      242
   34.165      255
   34.180      255
   34.195      236
   34.210      228
   34.225      236
   34.240      212
   34.255      191
   34.270      180
   34.285      157
   34.300      147
   34.315      165
   34.330      166
   34.345      177
   34.360      190
   34.375      203
   34.390      215
   34.405      218
   34.420      206
   34.435      216
   34.450      203
   34.465      207
   34.480      218
   34.495      180
   34.510      191
   34.525      189
   34.540      212
   34.555      210
   34.570      205
   34.585      193
   34.600      206
   34.615      203
   34.630      195
   34.645      214
   34.660      199
   34.675      189
   34.690      194
   34.705      213
   34.720      221
   34.735      224
   34.750      248
   34.765      245
   34.780      253
   34.795      236
   34.810      261
   34.825      250
   34.840      253
   34.855      241
   34.870      237
   34.885      244
   34.900      280
   34.915      264
   34.930      263
   34.945      284
   34.960      314
   34.975      328
   34.990      347
   35.005      346
   35.020      331
   35.035      345
   35.050      368
   35.065      402
   35.080      414
   35.095      435
   35.110      426
   35.125      396
   35.140      375
   35.155      385
   35.170      379
   35.185      383
   35.200      385
   35.215      376
   35.230      381
   35.245      406
   35.260      400
   35.275      406
   35.290      374
   35.305      344
   35.320      328
   35.335      312
   35.350      277
   35.365      252
   35.380      249
   35.395      210
   35.410      193
   35.425      178
   35.440      186
   35.455      157
   35.470      155
   35.485      166
   35.500      164
   35.515      163
   35.530      155
   35.545      171
   35.560      158
   35.575      166
   35.590      192
   35.605      152
   35.620      163
   35.635      162
   35.650      163
   35.665      166
   35.680      151
   35.695      175
   35.710      178
   35.725      175
   35.740      148
   35.755      148
   35.770      168
   35.785      171
   35.800      166
   35.815      192
   35.830      182
   35.845      196
   35.860      168
   35.875      199
   35.890      240
   35.905      258
   35.920      258
   35.935      220
   35.950      209
   35.965      171
   35.980      179
   35.995      167
   36.010      154
   36.025      165
   36.040      155
   36.055      168
   36.070      149
   36.085      133
   36.100      154
   36.115      131
   36.130      152
   36.145      155
   36.160      169
   36.175      142
   36.190      144
   36.205      148
   36.220      156
   36.235      149
   36.250      149
   36.265      131
   36.280      146
   36.295      142
   36.310      148
   36.325      156
   36.340      173
   36.355      202
   36.370      206
   36.385      201
   36.400      197
   36.415      205
   36.430      198
   36.445      187
   36.460      145
   36.475      147
   36.490      140
   36.505      153
   36.520      161
   36.535      151
   36.550      156
   36.565      168
   36.580      171
   36.595      175
   36.610      188
   36.625      164
   36.640      158
   36.655      181
   36.670      169
   36.685      174
   36.700      198
   36.715      186
   36.730      221
   36.745      187
   36.760      174
   36.775      160
   36.790      187
   36.805      189
   36.820      160
   36.835      158
   36.850      167
   36.865      180
   36.880      180
   36.895      197
   36.910      207
   36.925      192
   36.940      220
   36.955      214
   36.970      206
   36.985      188
   37.000      173
   37.015      151
   37.030      156
   37.045      157
   37.060      132
   37.075      133
   37.090      144
   37.105      138
   37.120      113
   37.135      125
   37.150      131
   37.165      150
   37.180      163
   37.195      146
   37.210      155
   37.225      130
   37.240      138
   37.255      135
   37.270      141
   37.285      139
   37.300      142
   37.315      157
   37.330      138
   37.345      162
   37.360      152
   37.375      143
   37.390      144
   37.405      172
   37.420      164
   37.435      171
   37.450      172
   37.465      181
   37.480      169
   37.495      164
   37.510      166
   37.525      153
   37.540      173
   37.555      153
   37.570      182
   37.585      188
   37.600      194
   37.615      200
   37.630      212
   37.645      220
   37.660      203
   37.675      178
   37.690      142
   37.705      163
   37.720      140
   37.735      159
   37.750      137
   37.765      132
   37.780      142
   37.795      143
   37.810      157
   37.825      164
   37.840      146
   37.855      148
   37.870      149
   37.885      150
   37.900      138
   37.915      137
   37.930      129
   37.945      153
   37.960      169
   37.975      197
   37.990      229
   38.005      259
   38.020      266
   38.035      244
   38.050      246
   38.065      230
   38.080      214
   38.095      186
   38.110      186
   38.125      195
   38.140      178
   38.155      174
   38.170      174
   38.185      191
   38.200      183
   38.215      182
   38.230      187
   38.245      180
   38.260      206
   38.275      192
   38.290      175
   38.305      173
   38.320      179
   38.335      166
   38.350      166
   38.365      151
   38.380      134
   38.395      167
   38.410      172
   38.425      155
   38.440      178
   38.455      170
   38.470      188
   38.485      213
   38.500      212
   38.515      194
   38.530      169
   38.545      191
   38.560      180
   38.575      174
   38.590      180
   38.605      190
   38.620      163
   38.635      167
   38.650      172
   38.665      186
   38.680      174
   38.695      169
   38.710      181
   38.725      158
   38.740      169
   38.755      156
   38.770      155
   38.785      139
   38.800      158
   38.815      143
   38.830      143
   38.845      134
   38.860      170
   38.875      151
   38.890      145
   38.905      141
   38.920      144
   38.935      142
   38.950      151
   38.965      146
   38.980      135
   38.995      124
   39.010      125
   39.025      138
   39.040      154
   39.055      140
   39.070      153
   39.085      141
   39.100      130
   39.115      127
   39.130      142
   39.145      123
   39.160      125
   39.175      129
   39.190      130
   39.205      126
   39.220      114
   39.235      136
   39.250      133
   39.265      138
   39.280      143
   39.295      148
   39.310      146
   39.325      140
   39.340      142
   39.355      156
   39.370      155
   39.385      173
   39.400      191
   39.415      196
   39.430      198
   39.445      196
   39.460      198
   39.475      195
   39.490      205
   39.505      171
   39.520      151
   39.535      158
   39.550      164
   39.565      151
   39.580      150
   39.595      131
   39.610      137
   39.625      150
   39.640      123
   39.655      141
   39.670      140
   39.685      146
   39.700      139
   39.715      150
   39.730      147
   39.745      156
   39.760      133
   39.775      135
   39.790      137
   39.805      119
   39.820      111
   39.835      117
   39.850      130
   39.865      168
   39.880      144
   39.895      149
   39.910      148
   39.925      153
   39.940      152
   39.955      164
   39.970      183
   39.985      186
   40.000      174
   40.015      199
   40.030      202
   40.045      188
   40.060      224
   40.075      232
   40.090      224
   40.105      217
   40.120      234
   40.135      217
   40.150      199
   40.165      197
   40.180      165
   40.195      175
   40.210      178
   40.225      188
   40.240      174
   40.255      196
   40.270      167
   40.285      168
   40.300      182
   40.315      181
   40.330      185
   40.345      190
   40.360      195
   40.375      216
   40.390      213
   40.405      206
   40.420      206
   40.435      192
   40.450      208
   40.465      207
   40.480      195
   40.495      182
   40.510      176
   40.525      169
   40.540      141
   40.555      146
   40.570      141
   40.585      136
   40.600      143
   40.615      136
   40.630      143
   40.645      136
   40.660      149
   40.675      179
   40.690      159
   40.705      144
   40.720      141
   40.735      130
   40.750      117
   40.765      123
   40.780      128
   40.795      106
   40.810      125
   40.825      123
   40.840      140
   40.855      121
   40.870      117
   40.885      113
   40.900      112
   40.915      125
   40.930      126
   40.945      121
   40.960      111
   40.975      126
   40.990      117
   41.005      126
   41.020      122
   41.035      112
   41.050      131
   41.065      146
   41.080      146
   41.095      146
   41.110      141
   41.125      132
   41.140      136
   41.155      141
   41.170      135
   41.185      147
   41.200      139
   41.215      129
   41.230      123
   41.245      139
   41.260      168
   41.275      173
   41.290      157
   41.305      167
   41.320      147
   41.335      165
   41.350      126
   41.365      138
   41.380      162
   41.395      164
   41.410      161
   41.425      137
   41.440      145
   41.455      147
   41.470      142
   41.485      152
   41.500      143
   41.515      127
   41.530      130
   41.545      145
   41.560      151
   41.575      169
   41.590      161
   41.605      161
   41.620      161
   41.635      161
   41.650      155
   41.665      157
   41.680      161
   41.695      175
   41.710      156
   41.725      178
   41.740      190
   41.755      156
   41.770      164
   41.785      159
   41.800      166
   41.815      140
   41.830      140
   41.845      167
   41.860      148
   41.875      133
   41.890      153
   41.905      154
   41.920      159
   41.935      166
   41.950      156
   41.965      153
   41.980      139
   41.995      150
   42.010      153
   42.025      153
   42.040      145
   42.055      147
   42.070      164
   42.085      152
   42.100      146
   42.115      141
   42.130      134
   42.145      126
   42.160      132
   42.175      143
   42.190      139
   42.205      140
   42.220      140
   42.235      132
   42.250      134
   42.265      141
   42.280      140
   42.295      139
   42.310      131
   42.325      140
   42.340      140
   42.355      148
   42.370      158
   42.385      156
   42.400      138
   42.415      141
   42.430      122
   42.445      126
   42.460      126
   42.475      142
   42.490      149
   42.505      134
   42.520      138
   42.535      105
   42.550      140
   42.565      171
   42.580      154
   42.595      160
   42.610      160
   42.625      163
   42.640      162
   42.655      147
   42.670      162
   42.685      156
   42.700      158
   42.715      160
   42.730      136
   42.745      162
   42.760      154
   42.775      140
   42.790      147
   42.805      143
   42.820      155
   42.835      144
   42.850      132
   42.865      122
   42.880      148
   42.895      121
   42.910      114
   42.925      122
   42.940      115
   42.955      120
   42.970      124
   42.985      130
   43.000      117
   43.015      102
   43.030      122
   43.045      127
   43.060      133
   43.075      137
   43.090      125
   43.105      109
   43.120      136
   43.135      145
   43.150      121
   43.165      129
   43.180      136
   43.195      139
   43.210      157
   43.225      141
   43.240      140
   43.255      135
   43.270      139
   43.285      145
   43.300      148
   43.315      152
   43.330      137
   43.345      146
   43.360      129
   43.375      134
   43.390      131
   43.405      122
   43.420      116
   43.435      122
   43.450      130
   43.465      126
   43.480      153
   43.495      147
   43.510      140
   43.525      145
   43.540      112
   43.555      125
   43.570      156
   43.585      149
   43.600      131
   43.615      130
   43.630      127
   43.645      149
   43.660      163
   43.675      138
   43.690      142
   43.705      155
   43.720      172
   43.735      150
   43.750      161
   43.765      183
   43.780      157
   43.795      143
   43.810      155
   43.825      138
   43.840      153
   43.855      129
   43.870      114
   43.885      148
   43.900      153
   43.915      157
   43.930      150
   43.945      152
   43.960      127
   43.975      136
   43.990      148
   44.005      138
   44.020      154
   44.035      151
   44.050      171
   44.065      161
   44.080      156
   44.095      164
   44.110      155
   44.125      151
   44.140      144
   44.155      141
   44.170      143
   44.185      148
   44.200      143
   44.215      160
   44.230      178
   44.245      162
   44.260      164
   44.275      202
   44.290      207
   44.305      205
   44.320      192
   44.335      167
   44.350      143
   44.365      142
   44.380      155
   44.395      169
   44.410      149
   44.425      143
   44.440      147
   44.455      145
   44.470      148
   44.485      175
   44.500      168
   44.515      164
   44.530      159
   44.545      166
   44.560      157
   44.575      173
   44.590      200
   44.605      194
   44.620      208
   44.635      211
   44.650      184
   44.665      210
   44.680      199
   44.695      169
   44.710      160
   44.725      160
   44.740      184
   44.755      191
   44.770      188
   44.785      185
   44.800      173
   44.815      176
   44.830      177
   44.845      169
   44.860      164
   44.875      173
   44.890      158
   44.905      153
   44.920      144
   44.935      132
   44.950      136
   44.965      141
   44.980      121
   44.995      143
   45.010      154
   45.025      167
   45.040      167
   45.055      176
   45.070      175
   45.085      174
   45.100      168
   45.115      162
   45.130      158
   45.145      143
   45.160      151
   45.175      154
   45.190      133
   45.205      141
   45.220      133
   45.235      119
   45.250      111
   45.265      118
   45.280      126
   45.295      141
   45.310      133
   45.325      122
   45.340      127
   45.355      127
   45.370      129
   45.385      121
   45.400      104
   45.415      128
   45.430      134
   45.445      127
   45.460      116
   45.475      107
   45.490      123
   45.505      129
   45.520      131
   45.535      147
   45.550      150
   45.565      132
   45.580      127
   45.595      132
   45.610      138
   45.625      135
   45.640      145
   45.655      154
   45.670      160
   45.685      180
   45.700      152
   45.715      180
   45.730      181
   45.745      181
   45.760      200
   45.775      187
   45.790      164
   45.805      162
   45.820      168
   45.835      159
   45.850      140
   45.865      125
   45.880      127
   45.895      135
   45.910      127
   45.925      141
   45.940      145
   45.955      139
   45.970      128
   45.985      137
