    4.000       43
    4.015       39
    4.030       39
    4.045       38
    4.060       53
    4.075       49
    4.090       42
    4.105       54
    4.120       45
    4.135       50
    4.150       61
    4.165       44
    4.180       39
    4.195       47
    4.210       49
    4.225       44
    4.240       47
    4.255       48
    4.270       43
    4.285       47
    4.300       43
    4.315       49
    4.330       58
    4.345       55
    4.360       48
    4.375       44
    4.390       45
    4.405       47
    4.420       50
    4.435       52
    4.450       48
    4.465       42
    4.480       55
    4.495       44
    4.510       42
    4.525       44
    4.540       47
    4.555       34
    4.570       54
    4.585       61
    4.600       54
    4.615       41
    4.630       48
    4.645       48
    4.660       50
    4.675       42
    4.690       48
    4.705       43
    4.720       41
    4.735       42
    4.750       46
    4.765       39
    4.780       44
    4.795       44
    4.810       30
    4.825       47
    4.840       46
    4.855       40
    4.870       48
    4.885       46
    4.900       44
    4.915       44
    4.930       45
    4.945       37
    4.960       43
    4.975       38
    4.990       28
    5.005       35
    5.020       39
    5.035       56
    5.050       57
    5.065       45
    5.080       41
    5.095       34
    5.110       48
    5.125       41
    5.140       34
    5.155       41
    5.170       49
    5.185       45
    5.200       50
    5.215       47
    5.230       40
    5.245       36
    5.260       46
    5.275       48
    5.290       43
    5.305       37
    5.320       37
    5.335       37
    5.350       41
    5.365       36
    5.380       33
    5.395       42
    5.410       43
    5.425       44
    5.440       33
    5.455       44
    5.470       49
    5.485       50
    5.500       37
    5.515       40
    5.530       39
    5.545       47
    5.560       50
    5.575       41
    5.590       44
    5.605       44
    5.620       45
    5.635       39
    5.650       49
    5.665       36
    5.680       37
    5.695       30
    5.710       40
    5.725       40
    5.740       55
    5.755       53
    5.770       44
    5.785       48
    5.800       51
    5.815       48
    5.830       40
    5.845       42
    5.860       43
    5.875       35
    5.890       43
    5.905       35
    5.920       40
    5.935       49
    5.950       44
    5.965       42
    5.980       42
    5.995       46
    6.010       39
    6.025       53
    6.040       43
    6.055       48
    6.070       47
    6.085       38
    6.100       38
    6.115       35
    6.130       56
    6.145       47
    6.160       50
    6.175       45
    6.190       42
    6.205       49
    6.220       50
    6.235       48
    6.250       44
    6.265       52
    6.280       49
    6.295       71
    6.310       69
    6.325       62
    6.340       64
    6.355       68
    6.370       77
    6.385       78
    6.400       85
    6.415       95
    6.430      111
    6.445      117
    6.460      118
    6.475      121
    6.490      129
    6.505      127
    6.520      133
    6.535      175
    6.550      181
    6.565      198
    6.580      268
    6.595      327
    6.610      361
    6.625      335
    6.640      293
    6.655      320
    6.670      285
    6.685      210
    6.700      134
    6.715       67
    6.730       50
    6.745       40
    6.760       44
    6.775       47
    6.790       49
    6.805       43
    6.820       44
    6.835       40
    6.850       46
    6.865       45
    6.880       41
    6.895       42
    6.910       49
    6.925       43
    6.940       45
    6.955       47
    6.970       51
    6.985       53
    7.000       41
    7.015       56
    7.030       52
    7.045       61
    7.060       44
    7.075       50
    7.090       54
    7.105       52
    7.120       62
    7.135       78
    7.150       71
    7.165       85
    7.180      102
    7.195       88
    7.210       71
    7.225       53
    7.240       45
    7.255       42
    7.270       39
    7.285       43
    7.300       41
    7.315       36
    7.330       35
    7.345       37
    7.360       35
    7.375       41
    7.390       48
    7.405       52
    7.420       39
    7.435       31
    7.450       38
    7.465       37
    7.480       48
    7.495       44
    7.510       39
    7.525       52
    7.540       44
    7.555       30
    7.570       46
    7.585       42
    7.600       38
    7.615       43
    7.630       41
    7.645       43
    7.660       46
    7.675       48
    7.690       55
    7.705       50
    7.720       48
    7.735       51
    7.750       38
    7.765       41
    7.780       43
    7.795       37
    7.810       41
    7.825       35
    7.840       39
    7.855       49
    7.870       42
    7.885       38
    7.900       40
    7.915       46
    7.930       38
    7.945       27
    7.960       35
    7.975       36
    7.990       40
    8.005       42
    8.020       37
    8.035       52
    8.050       36
    8.065       28
    8.080       39
    8.095       41
    8.110       50
    8.125       41
    8.140       40
    8.155       39
    8.170       42
    8.185       30
    8.200       32
    8.215       45
    8.230       48
    8.245       40
    8.260       33
    8.275       32
    8.290       38
    8.305       38
    8.320       47
    8.335       41
    8.350       37
    8.365       39
    8.380       37
    8.395       37
    8.410       47
    8.425       47
    8.440       39
    8.455       42
    8.470       46
    8.485       47
    8.500       44
    8.515       41
    8.530       41
    8.545       51
    8.560       50
    8.575       60
    8.590       59
    8.605       45
    8.620       37
    8.635       46
    8.650       34
    8.665       30
    8.680       34
    8.695       37
    8.710       39
    8.725       41
    8.740       46
    8.755       32
    8.770       40
    8.785       37
    8.800       46
    8.815       47
    8.830       36
    8.845       38
    8.860       39
    8.875       52
    8.890       51
    8.905       47
    8.920       34
    8.935       34
    8.950       44
    8.965       44
    8.980       46
    8.995       39
    9.010       36
    9.025       38
    9.040       42
    9.055       37
    9.070       50
    9.085       44
    9.100       53
    9.115       49
    9.130       53
    9.145       47
    9.160       46
    9.175       46
    9.190       48
    9.205       49
    9.220       51
    9.235       40
    9.250       44
    9.265       47
    9.280       46
    9.295       46
    9.310       54
    9.325       68
    9.340       47
    9.355       49
    9.370       50
    9.385       45
    9.400       45
    9.415       50
    9.430       48
    9.445       54
    9.460       54
    9.475       41
    9.490       43
    9.505       44
    9.520       46
    9.535       41
    9.550       50
    9.565       45
    9.580       42
    9.595       41
    9.610       42
    9.625       39
    9.640       41
    9.655       42
    9.670       47
    9.685       45
    9.700       50
    9.715       49
    9.730       42
    9.745       48
    9.760       49
    9.775       54
    9.790       48
    9.805       47
    9.820       52
    9.835       54
    9.850       50
    9.865       34
    9.880       46
    9.895       43
    9.910       37
    9.925       53
    9.940       34
    9.955       61
    9.970       53
    9.985       58
   10.000       52
   10.015       50
   10.030       44
   10.045       44
   10.060       48
   10.075       50
   10.090       47
   10.105       45
   10.120       41
   10.135       41
   10.150       49
   10.165       54
   10.180       53
   10.195       48
   10.210       55
   10.225       58
   10.240       53
   10.255       51
   10.270       59
   10.285       52
   10.300       61
   10.315       60
   10.330       54
   10.345       48
   10.360       56
   10.375       58
   10.390       49
   10.405       63
   10.420       64
   10.435       56
   10.450       64
   10.465       69
   10.480       70
   10.495       80
   10.510       69
   10.525       47
   10.540       47
   10.555       49
   10.570       40
   10.585       46
   10.600       48
   10.615       52
   10.630       61
   10.645       62
   10.660       57
   10.675       71
   10.690       75
   10.705       91
   10.720       97
   10.735      104
   10.750      113
   10.765      133
   10.780      139
   10.795      144
   10.810      130
   10.825      169
   10.840      190
   10.855      246
   10.870      261
   10.885      213
   10.900      178
   10.915      126
   10.930       81
   10.945       65
   10.960       47
   10.975       56
   10.990       59
   11.005       51
   11.020       58
   11.035       55
   11.050       54
   11.065       40
   11.080       41
   11.095       50
   11.110       49
   11.125       43
   11.140       46
   11.155       62
   11.170       64
   11.185       63
   11.200       70
   11.215       65
   11.230       80
   11.245       84
   11.260       80
   11.275       58
   11.290       52
   11.305       53
   11.320       51
   11.335       55
   11.350       43
   11.365       57
   11.380       59
   11.395       54
   11.410       60
   11.425       52
   11.440       58
   11.455       65
   11.470       61
   11.485       56
   11.500       46
   11.515       49
   11.530       49
   11.545       54
   11.560       40
   11.575       34
   11.590       40
   11.605       41
   11.620       53
   11.635       54
   11.650       48
   11.665       52
   11.680       49
   11.695       56
   11.710       52
   11.725       51
   11.740       51
   11.755       62
   11.770       48
   11.785       70
   11.800       65
   11.815       77
   11.830       90
   11.845       97
   11.860       88
   11.875       87
   11.890       95
   11.905       78
   11.920       82
   11.935       70
   11.950       61
   11.965       63
   11.980       56
   11.995       53
   12.010       65
   12.025       56
   12.040       53
   12.055       64
   12.070       62
   12.085       53
   12.100       55
   12.115       61
   12.130       61
   12.145       58
   12.160       48
   12.175       44
   12.190       54
   12.205       41
   12.220       29
   12.235       39
   12.250       44
   12.265       49
   12.280       44
   12.295       40
   12.310       41
   12.325       49
   12.340       51
   12.355       53
   12.370       53
   12.385       54
   12.400       64
   12.415       59
   12.430       66
   12.445       50
   12.460       57
   12.475       55
   12.490       61
   12.505       58
   12.520       64
   12.535       68
   12.550       72
   12.565       81
   12.580      100
   12.595      123
   12.610      123
   12.625      158
   12.640      140
   12.655      172
   12.670      229
   12.685      254
   12.700      253
   12.715      203
   12.730      181
   12.745      184
   12.760      171
   12.775      171
   12.790      112
   12.805       94
   12.820       76
   12.835       72
   12.850       54
   12.865       62
   12.880       52
   12.895       72
   12.910       62
   12.925       64
   12.940       83
   12.955       89
   12.970       85
   12.985       97
   13.000      102
   13.015      136
   13.030      157
   13.045      189
   13.060      216
   13.075      195
   13.090      143
   13.105      135
   13.120      135
   13.135      129
   13.150      171
   13.165      242
   13.180      268
   13.195      270
   13.210      309
   13.225      375
   13.240      429
   13.255      560
   13.270      527
   13.285      452
   13.300      377
   13.315      430
   13.330      545
   13.345      677
   13.360      892
   13.375      833
   13.390      595
   13.405      374
   13.420      200
   13.435      129
   13.450      111
   13.465      103
   13.480      110
   13.495      121
   13.510      116
   13.525      133
   13.540      148
   13.555      164
   13.570      223
   13.585      260
   13.600      261
   13.615      279
   13.630      279
   13.645      260
   13.660      184
   13.675      142
   13.690       97
   13.705       71
   13.720       67
   13.735       76
   13.750       70
   13.765       55
   13.780       58
   13.795       59
   13.810       61
   13.825       68
   13.840       81
   13.855       73
   13.870       83
   13.885       83
   13.900       71
   13.915       71
   13.930       66
   13.945       55
   13.960       59
   13.975       60
   13.990       63
   14.005       56
   14.020       51
   14.035       58
   14.050       65
   14.065       54
   14.080       52
   14.095       62
   14.110       64
   14.125       67
   14.140       70
   14.155       60
   14.170       65
   14.185       70
   14.200       67
   14.215       77
   14.230       84
   14.245       92
   14.260       97
   14.275      108
   14.290      116
   14.305      156
   14.320      185
   14.335      223
   14.350      245
   14.365      211
   14.380      180
   14.395      162
   14.410      180
   14.425      161
   14.440      136
   14.455      158
   14.470      144
   14.485      137
   14.500      156
   14.515      189
   14.530      221
   14.545      251
   14.560      282
   14.575      232
   14.590      175
   14.605      108
   14.620       79
   14.635       74
   14.650       55
   14.665       73
   14.680       71
   14.695       55
   14.710       67
   14.725       71
   14.740       64
   14.755       70
   14.770       62
   14.785       75
   14.800       72
   14.815       58
   14.830       65
   14.845       71
   14.860       64
   14.875       64
   14.890       65
   14.905       90
   14.920       76
   14.935       81
   14.950       88
   14.965      111
   14.980      145
   14.995      141
   15.010      182
   15.025      229
   15.040      251
   15.055      295
   15.070      351
   15.085      382
   15.100      447
   15.115      513
   15.130      671
   15.145      718
   15.160      541
   15.175      373
   15.190      237
   15.205      171
   15.220      158
   15.235      133
   15.250      147
   15.265      152
   15.280      155
   15.295      162
   15.310      144
   15.325      170
   15.340      178
   15.355      219
   15.370      224
   15.385      217
   15.400      159
   15.415      179
   15.430      146
   15.445      119
   15.460      106
   15.475      104
   15.490      107
   15.505      120
   15.520      121
   15.535      128
   15.550      147
   15.565      176
   15.580      196
   15.595      245
   15.610      297
   15.625      344
   15.640      394
   15.655      346
   15.670      275
   15.685      191
   15.700      172
   15.715      186
   15.730      157
   15.745      150
   15.760      135
   15.775      123
   15.790      154
   15.805      194
   15.820      187
   15.835      193
   15.850      190
   15.865      153
   15.880      100
   15.895       84
   15.910       71
   15.925       65
   15.940       74
   15.955       80
   15.970       76
   15.985       61
   16.000       75
   16.015       75
   16.030       84
   16.045      101
   16.060       99
   16.075      121
   16.090      131
   16.105      129
   16.120      165
   16.135      184
   16.150      214
   16.165      225
   16.180      216
   16.195      263
   16.210      232
   16.225      208
   16.240      152
   16.255      111
   16.270      119
   16.285      101
   16.300      112
   16.315      112
   16.330      118
   16.345      132
   16.360      133
   16.375      144
   16.390      161
   16.405      194
   16.420      212
   16.435      240
   16.450      285
   16.465      357
   16.480      454
   16.495      424
   16.510      392
   16.525      326
   16.540      260
   16.555      253
   16.570      249
   16.585      297
   16.600      316
   16.615      256
   16.630      247
   16.645      218
   16.660      237
   16.675      222
   16.690      213
   16.705      206
   16.720      206
   16.735      240
   16.750      298
   16.765      292
   16.780      269
   16.795      236
   16.810      235
   16.825      253
   16.840      214
   16.855      207
   16.870      211
   16.885      155
   16.900      130
   16.915      108
   16.930       94
   16.945      102
   16.960      109
   16.975      106
   16.990      138
   17.005      141
   17.020      141
   17.035      170
   17.050      201
   17.065      210
   17.080      250
   17.095      265
   17.110      225
   17.125      189
   17.140      161
   17.155      161
   17.170      152
   17.185      177
   17.200      217
   17.215      276
   17.230      290
   17.245      329
   17.260      326
   17.275      321
   17.290      303
   17.305      254
   17.320      194
   17.335      146
   17.350      127
   17.365      123
   17.380      118
   17.395      124
   17.410      113
   17.425      102
   17.440      100
   17.455      116
   17.470      116
   17.485      126
   17.500      136
   17.515      171
   17.530      197
   17.545      205
   17.560      183
   17.575      151
   17.590      117
   17.605       83
   17.620       91
   17.635       90
   17.650       87
   17.665       89
   17.680      109
   17.695      108
   17.710      118
   17.725      130
   17.740      106
   17.755      108
   17.770       86
   17.785      104
   17.800      102
   17.815      117
   17.830      111
   17.845       87
   17.860       97
   17.875       98
   17.890       92
   17.905       81
   17.920       76
   17.935       78
   17.950       75
   17.965       59
   17.980       72
   17.995       77
   18.010       66
   18.025       56
   18.040       77
   18.055       70
   18.070       80
   18.085       78
   18.100       74
   18.115       66
   18.130       69
   18.145       59
   18.160       67
   18.175       63
   18.190       71
   18.205       89
   18.220       76
   18.235       89
   18.250      111
   18.265      127
   18.280      122
   18.295      177
   18.310      164
   18.325      178
   18.340      218
   18.355      233
   18.370      205
   18.385      176
   18.400      142
   18.415      109
   18.430       99
   18.445       92
   18.460       94
   18.475       73
   18.490       69
   18.505       77
   18.520       73
   18.535       80
   18.550       96
   18.565      102
   18.580      107
   18.595      119
   18.610      147
   18.625      138
   18.640      142
   18.655      143
   18.670      119
   18.685      123
   18.700      130
   18.715      140
   18.730      159
   18.745      131
   18.760      120
   18.775       99
   18.790      114
   18.805       91
   18.820       85
   18.835       93
   18.850       69
   18.865       83
   18.880       74
   18.895       78
   18.910       94
   18.925      104
   18.940      107
   18.955       93
   18.970       89
   18.985       83
   19.000       73
   19.015       89
   19.030       88
   19.045       89
   19.060       81
   19.075       66
   19.090       66
   19.105       70
   19.120       64
   19.135       72
   19.150       76
   19.165       68
   19.180       77
   19.195       75
   19.210       67
   19.225       80
   19.240       55
   19.255       67
   19.270       61
   19.285       47
   19.300       55
   19.315       51
   19.330       59
   19.345       61
   19.360       65
   19.375       73
   19.390       79
   19.405       63
   19.420       63
   19.435       66
   19.450       70
   19.465       63
   19.480       63
   19.495       74
   19.510       78
   19.525       88
   19.540       85
   19.555       97
   19.570      121
   19.585      122
   19.600      146
   19.615      149
   19.630      144
   19.645      139
   19.660      144
   19.675      160
   19.690      157
   19.705      144
   19.720      103
   19.735       90
   19.750       87
   19.765       82
   19.780       95
   19.795       93
   19.810      100
   19.825      100
   19.840      129
   19.855      137
   19.870      167
   19.885      193
   19.900      218
   19.915      272
   19.930      357
   19.945      455
   19.960      463
   19.975      403
   19.990      356
   20.005      272
   20.020      230
   20.035      250
   20.050      287
   20.065      273
   20.080      277
   20.095      252
   20.110      258
   20.125      193
   20.140      152
   20.155      122
   20.170      101
   20.185       87
   20.200       88
   20.215       71
   20.230       72
   20.245       88
   20.260       72
   20.275       73
   20.290       88
   20.305       67
   20.320       54
   20.335       58
   20.350       60
   20.365       63
   20.380       67
   20.395       64
   20.410       68
   20.425       56
   20.440       61
   20.455       67
   20.470       80
   20.485       87
   20.500       79
   20.515       65
   20.530       73
   20.545       76
   20.560       55
   20.575       73
   20.590       70
   20.605       79
   20.620       76
   20.635       88
   20.650       90
   20.665       86
   20.680       72
   20.695       85
   20.710       84
   20.725       68
   20.740       84
   20.755       90
   20.770       95
   20.785      106
   20.800      122
   20.815      107
   20.830      121
   20.845      123
   20.860      116
   20.875      102
   20.890      120
   20.905      128
   20.920      138
   20.935      132
   20.950      122
   20.965      106
   20.980       81
   20.995       76
   21.010       55
   21.025       70
   21.040       75
   21.055       58
   21.070       73
   21.085       79
   21.100       77
   21.115       55
   21.130       57
   21.145       51
   21.160       63
   21.175       66
   21.190       64
   21.205       61
   21.220       72
   21.235       88
   21.250       79
   21.265       82
   21.280       80
   21.295       90
   21.310      107
   21.325       83
   21.340       67
   21.355       67
   21.370       61
   21.385       59
   21.400       63
   21.415       70
   21.430       71
   21.445       70
   21.460       60
   21.475       57
   21.490       66
   21.505       70
   21.520       59
   21.535       66
   21.550       66
   21.565       84
   21.580       77
   21.595       89
   21.610       88
   21.625      101
   21.640      131
   21.655      154
   21.670      177
   21.685      155
   21.700      143
   21.715      129
   21.730      130
   21.745      106
   21.760      136
   21.775      164
   21.790      196
   21.805      245
   21.820      335
   21.835      378
   21.850      376
   21.865      355
   21.880      233
   21.895      184
   21.910      151
   21.925      128
   21.940      110
   21.955       90
   21.970      103
   21.985       79
   22.000       80
   22.015       84
   22.030       75
   22.045       55
   22.060       56
   22.075       51
   22.090       57
   22.105       60
   22.120       55
   22.135       60
   22.150       58
   22.165       56
   22.180       61
   22.195       64
   22.210       63
   22.225       51
   22.240       71
   22.255       67
   22.270       67
   22.285       65
   22.300       63
   22.315       67
   22.330       70
   22.345       65
   22.360       74
   22.375       71
   22.390       67
   22.405       82
   22.420       92
   22.435       95
   22.450       96
   22.465       89
   22.480       79
   22.495       78
   22.510       54
   22.525       63
   22.540       54
   22.555       72
   22.570       67
   22.585       63
   22.600       81
   22.615       92
   22.630       95
   22.645      111
   22.660       97
   22.675      105
   22.690      128
   22.705      113
   22.720       98
   22.735       88
   22.750       84
   22.765       76
   22.780      100
   22.795       94
   22.810      105
   22.825      124
   22.840      123
   22.855      124
   22.870      128
   22.885      137
   22.900      137
   22.915      123
   22.930      122
   22.945      105
   22.960       92
   22.975       78
   22.990       78
   23.005       72
   23.020       73
   23.035       69
   23.050       55
   23.065       73
   23.080       80
   23.095       72
   23.110       76
   23.125       82
   23.140       81
   23.155       80
   23.170       71
   23.185       74
   23.200       86
   23.215       82
   23.230       98
   23.245      116
   23.260       94
   23.275       80
   23.290       78
   23.305       68
   23.320       63
   23.335       54
   23.350       62
   23.365       61
   23.380       56
   23.395       69
   23.410       69
   23.425       65
   23.440       61
   23.455       70
   23.470       67
   23.485       63
   23.500       52
   23.515       54
   23.530       70
   23.545       63
   23.560       55
   23.575       53
   23.590       51
   23.605       62
   23.620       52
   23.635       52
   23.650       66
   23.665       55
   23.680       66
   23.695       60
   23.710       68
   23.725       62
   23.740       66
   23.755       68
   23.770       69
   23.785       63
   23.800       71
   23.815       74
   23.830       73
   23.845       74
   23.860       82
   23.875       75
   23.890       65
   23.905       68
   23.920       66
   23.935       65
   23.950       70
   23.965       69
   23.980       55
   23.995       76
   24.010       78
   24.025       79
   24.040       88
   24.055       86
   24.070       64
   24.085       68
   24.100       67
   24.115       68
   24.130       49
   24.145       61
   24.160       50
   24.175       53
   24.190       66
   24.205       58
   24.220       65
   24.235       58
   24.250       64
   24.265       65
   24.280       72
   24.295       93
   24.310       93
   24.325       69
   24.340       71
   24.355       68
   24.370       57
   24.385       57
   24.400       63
   24.415       47
   24.430       44
   24.445       50
   24.460       51
   24.475       57
   24.490       67
   24.505       56
   24.520       53
   24.535       72
   24.550       58
   24.565       58
   24.580       62
   24.595       74
   24.610       89
   24.625       84
   24.640       86
   24.655       90
   24.670       84
   24.685       91
   24.700       78
   24.715       78
   24.730       71
   24.745       71
   24.760       76
   24.775       81
   24.790       67
   24.805       64
   24.820       70
   24.835       69
   24.850       59
   24.865       59
   24.880       50
   24.895       58
   24.910       55
   24.925       60
   24.940       51
   24.955       74
   24.970       82
   24.985       77
   25.000       86
   25.015       99
   25.030      121
   25.045       99
   25.060       81
   25.075       86
   25.090       79
   25.105       82
   25.120       74
   25.135       62
   25.150       66
   25.165       54
   25.180       61
   25.195       66
   25.210       74
   25.225       89
   25.240       80
   25.255       75
   25.270       71
   25.285       68
   25.300       68
   25.315       71
   25.330       59
   25.345       71
   25.360       72
   25.375       65
   25.390       69
   25.405       72
   25.420       98
   25.435       93
   25.450       96
   25.465      109
   25.480       99
   25.495       74
   25.510       71
   25.525       76
   25.540       74
   25.555       81
   25.570       64
   25.585       59
   25.600       63
   25.615       55
   25.630       65
   25.645       75
   25.660       77
   25.675       94
   25.690      110
   25.705      101
   25.720      127
   25.735      128
   25.750      110
   25.765      105
   25.780      100
   25.795       90
   25.810       74
   25.825       82
   25.840       96
   25.855       86
   25.870       88
   25.885       96
   25.900      105
   25.915      119
   25.930      139
   25.945      143
   25.960      118
   25.975       95
   25.990       80
   26.005       74
   26.020       70
   26.035       63
   26.050       63
   26.065       61
   26.080       67
   26.095       71
   26.110       67
   26.125       66
   26.140       67
   26.155       74
   26.170       82
   26.185       79
   26.200       75
   26.215       86
   26.230       99
   26.245       89
   26.260       88
   26.275       65
   26.290       64
   26.305       75
   26.320       66
   26.335       60
   26.350       67
   26.365       75
   26.380       81
   26.395       72
   26.410       75
   26.425       80
   26.440       79
   26.455       63
   26.470       68
   26.485       64
   26.500       63
   26.515       62
   26.530       66
   26.545       58
   26.560       58
   26.575       53
   26.590       57
   26.605       62
   26.620       70
   26.635       66
   26.650       66
   26.665       84
   26.680       85
   26.695       93
   26.710       86
   26.725       77
   26.740       64
   26.755       65
   26.770       64
   26.785       60
   26.800       60
   26.815       58
   26.830       63
   26.845       63
   26.860       71
   26.875       76
   26.890       88
   26.905       86
   26.920       96
   26.935      101
   26.950       99
   26.965      103
   26.980      114
   26.995      105
   27.010      108
   27.025       98
   27.040      116
   27.055       96
   27.070       92
   27.085       73
   27.100       66
   27.115       73
   27.130       68
   27.145       71
   27.160       81
   27.175       67
   27.190       76
   27.205       60
   27.220       58
   27.235       66
   27.250       68
   27.265       76
   27.280       72
   27.295       80
   27.310       75
   27.325       65
   27.340       71
   27.355       74
   27.370       66
   27.385       66
   27.400       71
   27.415       71
   27.430       78
   27.445       86
   27.460       87
   27.475       87
   27.490       93
   27.505       79
   27.520       91
   27.535       95
   27.550       79
   27.565       95
   27.580      127
   27.595      134
   27.610      124
   27.625      133
   27.640      146
   27.655      147
   27.670      141
   27.685      142
   27.700      116
   27.715      108
   27.730       92
   27.745       87
   27.760       77
   27.775       83
   27.790       82
   27.805       95
   27.820       78
   27.835       80
   27.850       98
   27.865       90
   27.880       85
   27.895       95
   27.910       90
   27.925      103
   27.940       97
   27.955      101
   27.970       89
   27.985       78
   28.000       77
   28.015       78
   28.030       77
   28.045       83
   28.060       80
   28.075       80
   28.090       73
   28.105       80
   28.120       74
   28.135       70
   28.150       70
   28.165       64
   28.180       71
   28.195       76
   28.210       73
   28.225       66
   28.240       62
   28.255       70
   28.270       75
   28.285       75
   28.300       90
   28.315       88
   28.330       74
   28.345       73
   28.360       79
   28.375       98
   28.390       98
   28.405       91
   28.420       87
   28.435       81
   28.450       93
   28.465       93
   28.480       99
   28.495       80
   28.510       70
   28.525       79
   28.540       62
   28.555       71
   28.570       69
   28.585       65
   28.600       72
   28.615       66
   28.630       69
   28.645       67
   28.660       76
   28.675       74
   28.690       85
   28.705       86
   28.720       65
   28.735       70
   28.750       76
   28.765       72
   28.780       69
   28.795       71
   28.810       74
   28.825       75
   28.840       71
   28.855       77
   28.870       78
   28.885       67
   28.900       73
   28.915       86
   28.930       85
   28.945       83
   28.960       77
   28.975       81
   28.990       92
   29.005      102
   29.020       86
   29.035       78
   29.050       80
   29.065       89
   29.080       88
   29.095       83
   29.110       89
   29.125       87
   29.140       85
   29.155       89
   29.170       73
   29.185       74
   29.200       82
   29.215       75
   29.230       64
   29.245       71
   29.260       91
   29.275       71
   29.290       63
   29.305       70
   29.320       71
   29.335       76
   29.350       63
   29.365       57
   29.380       61
   29.395       61
   29.410       56
   29.425       64
   29.440       56
   29.455       55
   29.470       64
   29.485       70
   29.500       52
   29.515       56
   29.530       59
   29.545       61
   29.560       78
   29.575       84
   29.590       80
   29.605       70
   29.620       82
   29.635       68
   29.650       84
   29.665       94
   29.680       77
   29.695       84
   29.710       89
   29.725       87
   29.740      101
   29.755       89
   29.770       98
   29.785       83
   29.800      101
   29.815       80
   29.830       80
   29.845       89
   29.860       85
   29.875       77
   29.890       68
   29.905       60
   29.920       56
   29.935       78
   29.950       62
   29.965       72
   29.980       63
   29.995       66
   30.010       74
   30.025       74
   30.040       61
   30.055       78
   30.070       80
   30.085       76
   30.100       76
   30.115       74
   30.130       61
   30.145       63
   30.160       66
   30.175       65
   30.190       79
   30.205       59
   30.220       58
   30.235       53
   30.250       71
   30.265       75
   30.280       69
   30.295       70
   30.310       69
   30.325       62
   30.340       65
   30.355       75
   30.370       63
   30.385       53
   30.400       63
   30.415       63
   30.430       58
   30.445       66
   30.460       74
   30.475       64
   30.490       63
   30.505       81
   30.520       66
   30.535       63
   30.550       67
   30.565       74
   30.580       78
   30.595       77
   30.610       90
   30.625       95
   30.640       91
   30.655       77
   30.670       77
   30.685       89
   30.700       79
   30.715       80
   30.730       78
   30.745       88
   30.760       78
   30.775       73
   30.790       72
   30.805       73
   30.820       67
   30.835       66
   30.850       67
   30.865       78
   30.880       74
   30.895       66
   30.910       75
   30.925       76
   30.940       67
   30.955       75
   30.970       66
   30.985       85
   31.000       76
   31.015       84
   31.030       81
   31.045       65
   31.060       78
   31.075       75
   31.090       75
   31.105       83
   31.120       63
   31.135       74
   31.150       70
   31.165       68
   31.180       71
   31.195       70
   31.210       67
   31.225       51
   31.240       57
   31.255       68
   31.270       75
   31.285       73
   31.300       63
   31.315       71
   31.330       71
   31.345       74
   31.360       65
   31.375       78
   31.390       83
   31.405       78
   31.420       82
   31.435       78
   31.450       63
   31.465       72
   31.480       74
   31.495       72
   31.510       68
   31.525       70
   31.540       61
   31.555       64
   31.570       70
   31.585       87
   31.600       78
   31.615       74
   31.630       82
   31.645       84
   31.660       86
   31.675       72
   31.690       73
   31.705       84
   31.720       88
   31.735       83
   31.750       80
   31.765       81
   31.780       99
   31.795       95
   31.810      101
   31.825       88
   31.840       78
   31.855       79
   31.870       81
   31.885       78
   31.900       75
   31.915       76
   31.930       83
   31.945       87
   31.960       82
   31.975       83
   31.990       87
   32.005       78
   32.020       75
   32.035       78
   32.050       86
   32.065       81
   32.080       75
   32.095       75
   32.110       70
   32.125       72
   32.140       85
   32.155       91
   32.170       75
   32.185       71
   32.200       80
   32.215       76
   32.230       81
   32.245       79
   32.260       85
   32.275       79
   32.290       73
   32.305       76
   32.320       72
   32.335       64
   32.350       65
   32.365       61
   32.380       67
   32.395       68
   32.410       62
   32.425       65
   32.440       63
   32.455       60
   32.470       67
   32.485       65
   32.500       77
   32.515       55
   32.530       67
   32.545       59
   32.560       60
   32.575       53
   32.590       53
   32.605       63
   32.620       62
   32.635       61
   32.650       52
   32.665       62
   32.680       58
   32.695       61
   32.710       72
   32.725       74
   32.740       58
   32.755       59
   32.770       45
   32.785       56
   32.800       62
   32.815       60
   32.830       55
   32.845       68
   32.860       73
   32.875       58
   32.890       61
   32.905       55
   32.920       70
   32.935       65
   32.950       75
   32.965       79
   32.980       71
   32.995       80
   33.010       85
   33.025       74
   33.040       82
   33.055       71
   33.070       77
   33.085       77
   33.100       73
   33.115       69
   33.130       55
   33.145       62
   33.160       56
   33.175       64
   33.190       69
   33.205       72
   33.220       66
   33.235       63
   33.250       75
   33.265       68
   33.280       80
   33.295       71
   33.310       61
   33.325       59
   33.340       66
   33.355       64
   33.370       59
   33.385       67
   33.400       69
   33.415       72
   33.430       81
   33.445       73
   33.460       74
   33.475       87
   33.490       85
   33.505       91
   33.520       92
   33.535       82
   33.550       87
   33.565       95
   33.580       94
   33.595       80
   33.610       83
   33.625       71
   33.640       74
   33.655       85
   33.670       74
   33.685       65
   33.700       77
   33.715       59
   33.730       62
   33.745       71
   33.760       69
   33.775       64
   33.790       62
   33.805       73
   33.820       82
   33.835       80
   33.850       86
   33.865       96
   33.880       79
   33.895       85
   33.910       86
   33.925       85
   33.940       73
   33.955       73
   33.970       77
   33.985       55
   34.000       59
   34.015       76
   34.030       60
   34.045       65
   34.060       75
   34.075       67
   34.090       62
   34.105       73
   34.120       68
   34.135       72
   34.150       72
   34.165       75
   34.180       68
   34.195       66
   34.210       64
   34.225       62
   34.240       65
   34.255       60
   34.270       60
   34.285       58
   34.300       50
   34.315       50
   34.330       55
   34.345       60
   34.360       57
   34.375       61
   34.390       64
   34.405       60
   34.420       53
   34.435       58
   34.450       63
   34.465       71
   34.480       62
   34.495       55
   34.510       77
   34.525       74
   34.540       60
   34.555       63
   34.570       70
   34.585       72
   34.600       64
   34.615       64
   34.630       59
   34.645       62
   34.660       56
   34.675       57
   34.690       61
   34.705       70
   34.720       53
   34.735       61
   34.750       51
   34.765       56
   34.780       59
   34.795       66
   34.810       68
   34.825       60
   34.840       66
   34.855       77
   34.870       76
   34.885       61
   34.900       58
   34.915       59
   34.930       62
   34.945       62
   34.960       66
   34.975       61
   34.990       52
   35.005       53
   35.020       45
   35.035       60
   35.050       64
   35.065       65
   35.080       64
   35.095       61
   35.110       74
   35.125       66
   35.140       68
   35.155       71
   35.170       66
   35.185       64
   35.200       52
   35.215       60
   35.230       64
   35.245       53
   35.260       47
   35.275       65
   35.290       69
   35.305       65
   35.320       62
   35.335       60
   35.350       61
   35.365       64
   35.380       72
   35.395       68
   35.410       58
   35.425       70
   35.440       75
   35.455       66
   35.470       63
   35.485       82
   35.500       65
   35.515       74
   35.530       80
   35.545       72
   35.560       70
   35.575       77
   35.590       83
   35.605       82
   35.620       81
   35.635       80
   35.650       82
   35.665       76
   35.680       75
   35.695       72
   35.710       65
   35.725       65
   35.740       55
   35.755       63
   35.770       82
   35.785       73
   35.800       81
   35.815       58
   35.830       66
   35.845       62
   35.860       70
   35.875       62
   35.890       58
   35.905       70
   35.920       68
   35.935       54
   35.950       70
   35.965       77
   35.980       67
   35.995       50
   36.010       57
   36.025       47
   36.040       58
   36.055       57
   36.070       52
   36.085       59
   36.100       64
   36.115       54
   36.130       65
   36.145       68
   36.160       64
   36.175       56
   36.190       55
   36.205       53
   36.220       50
   36.235       47
   36.250       50
   36.265       48
   36.280       59
   36.295       60
   36.310       63
   36.325       67
   36.340       61
   36.355       68
   36.370       60
   36.385       67
   36.400       65
   36.415       60
   36.430       59
   36.445       61
   36.460       53
   36.475       57
   36.490       52
   36.505       59
   36.520       52
   36.535       57
   36.550       52
   36.565       60
   36.580       61
   36.595       57
   36.610       55
   36.625       50
   36.640       61
   36.655       62
   36.670       53
   36.685       52
   36.700       61
   36.715       55
   36.730       55
   36.745       50
   36.760       44
   36.775       44
   36.790       50
   36.805       57
   36.820       60
   36.835       61
   36.850       65
   36.865       62
   36.880       53
   36.895       50
   36.910       54
   36.925       44
   36.940       65
   36.955       56
   36.970       64
   36.985       60
   37.000       67
   37.015       51
   37.030       66
   37.045       61
   37.060       62
   37.075       63
   37.090       52
   37.105       55
   37.120       62
   37.135       61
   37.150       48
   37.165       59
   37.180       61
   37.195       61
   37.210       55
   37.225       51
   37.240       61
   37.255       60
   37.270       68
   37.285       59
   37.300       66
   37.315       81
   37.330       61
   37.345       57
   37.360       66
   37.375       61
   37.390       47
   37.405       48
   37.420       57
   37.435       53
   37.450       50
   37.465       58
   37.480       55
   37.495       56
   37.510       54
   37.525       50
   37.540       53
   37.555       54
   37.570       46
   37.585       46
   37.600       55
   37.615       45
   37.630       49
   37.645       52
   37.660       56
   37.675       47
   37.690       49
   37.705       51
   37.720       56
   37.735       50
   37.750       48
   37.765       44
   37.780       56
   37.795       54
   37.810       50
   37.825       53
   37.840       58
   37.855       61
   37.870       48
   37.885       52
   37.900       60
   37.915       72
   37.930       59
   37.945       62
   37.960       59
   37.975       58
   37.990       57
   38.005       63
   38.020       56
   38.035       61
   38.050       65
   38.065       63
   38.080       68
   38.095       62
   38.110       64
   38.125       69
   38.140       60
   38.155       66
   38.170       69
   38.185       62
   38.200       53
   38.215       51
   38.230       51
   38.245       58
   38.260       64
   38.275       60
   38.290       43
   38.305       49
   38.320       54
   38.335       59
   38.350       64
   38.365       50
   38.380       42
   38.395       62
   38.410       65
   38.425       59
   38.440       67
   38.455       54
   38.470       56
   38.485       67
   38.500       56
   38.515       46
   38.530       51
   38.545       51
   38.560       44
   38.575       49
   38.590       64
   38.605       47
   38.620       49
   38.635       49
   38.650       48
   38.665       64
   38.680       63
   38.695       59
   38.710       50
   38.725       61
   38.740       60
   38.755       60
   38.770       55
   38.785       64
   38.800       54
   38.815       42
   38.830       45
   38.845       55
   38.860       62
   38.875       54
   38.890       55
   38.905       56
   38.920       54
   38.935       70
   38.950       60
   38.965       65
   38.980       70
   38.995       51
   39.010       53
   39.025       62
   39.040       53
   39.055       62
   39.070       58
   39.085       50
   39.100       51
   39.115       48
   39.130       55
   39.145       45
   39.160       49
   39.175       62
   39.190       47
   39.205       45
   39.220       43
   39.235       50
   39.250       50
   39.265       57
   39.280       50
   39.295       53
   39.310       59
   39.325       55
   39.340       42
   39.355       49
   39.370       51
   39.385       47
   39.400       54
   39.415       47
   39.430       47
   39.445       51
   39.460       52
   39.475       49
   39.490       40
   39.505       50
   39.520       49
   39.535       49
   39.550       51
   39.565       41
   39.580       50
   39.595       42
   39.610       47
   39.625       44
   39.640       48
   39.655       40
   39.670       35
   39.685       40
   39.700       58
   39.715       46
   39.730       43
   39.745       52
   39.760       50
   39.775       44
   39.790       60
   39.805       45
   39.820       55
   39.835       62
   39.850       68
   39.865       57
   39.880       51
   39.895       51
   39.910       50
   39.925       56
   39.940       61
   39.955       67
   39.970       62
   39.985       51
   40.000       48
   40.015       49
   40.030       52
   40.045       53
   40.060       57
   40.075       51
   40.090       62
   40.105       49
   40.120       51
   40.135       44
   40.150       43
   40.165       51
   40.180       51
   40.195       41
   40.210       47
   40.225       53
   40.240       49
   40.255       50
   40.270       50
   40.285       44
   40.300       47
   40.315       37
   40.330       34
   40.345       41
   40.360       44
   40.375       49
   40.390       55
   40.405       51
   40.420       57
   40.435       68
   40.450       58
   40.465       52
   40.480       55
   40.495       56
   40.510       57
   40.525       50
   40.540       46
   40.555       50
   40.570       67
   40.585       60
   40.600       63
   40.615       60
   40.630       62
   40.645       67
   40.660       54
   40.675       59
   40.690       46
   40.705       43
   40.720       52
   40.735       45
   40.750       45
   40.765       49
   40.780       44
   40.795       43
   40.810       52
   40.825       43
   40.840       51
   40.855       51
   40.870       54
   40.885       44
   40.900       43
   40.915       50
   40.930       52
   40.945       45
   40.960       34
   40.975       36
   40.990       40
   41.005       47
   41.020       47
   41.035       49
   41.050       48
   41.065       46
   41.080       42
   41.095       42
   41.110       47
   41.125       44
   41.140       51
   41.155       54
   41.170       54
   41.185       45
   41.200       48
   41.215       51
   41.230       47
   41.245       40
   41.260       43
   41.275       53
   41.290       57
   41.305       55
   41.320       40
   41.335       41
   41.350       45
   41.365       48
   41.380       42
   41.395       48
   41.410       48
   41.425       36
   41.440       38
   41.455       50
   41.470       51
   41.485       40
   41.500       49
   41.515       49
   41.530       47
   41.545       49
   41.560       42
   41.575       46
   41.590       42
   41.605       49
   41.620       51
   41.635       59
   41.650       50
   41.665       46
   41.680       46
   41.695       46
   41.710       46
   41.725       44
   41.740       47
   41.755       41
   41.770       44
   41.785       49
   41.800       54
   41.815       56
   41.830       50
   41.845       59
   41.860       56
   41.875       50
   41.890       55
   41.905       52
   41.920       56
   41.935       54
   41.950       49
   41.965       46
   41.980       49
   41.995       55
   42.010       46
   42.025       44
   42.040       51
   42.055       51
   42.070       38
   42.085       42
   42.100       52
   42.115       50
   42.130       49
   42.145       57
   42.160       40
   42.175       47
   42.190       42
   42.205       44
   42.220       46
   42.235       53
   42.250       48
   42.265       36
   42.280       45
   42.295       44
   42.310       44
   42.325       45
   42.340       45
   42.355       51
   42.370       39
   42.385       52
   42.400       47
   42.415       47
   42.430       50
   42.445       51
   42.460       55
   42.475       40
   42.490       42
   42.505       52
   42.520       44
   42.535       48
   42.550       45
   42.565       38
   42.580       43
   42.595       54
   42.610       49
   42.625       47
   42.640       46
   42.655       57
   42.670       53
   42.685       51
   42.700       47
   42.715       45
   42.730       46
   42.745       44
   42.760       44
   42.775       43
   42.790       48
   42.805       45
   42.820       39
   42.835       30
   42.850       53
   42.865       41
   42.880       37
   42.895       42
   42.910       49
   42.925       45
   42.940       36
   42.955       42
   42.970       44
   42.985       53
   43.000       41
   43.015       36
   43.030       42
   43.045       38
   43.060       66
   43.075       47
   43.090       39
   43.105       47
   43.120       44
   43.135       45
   43.150       42
   43.165       45
   43.180       50
   43.195       47
   43.210       46
   43.225       55
   43.240       56
   43.255       42
   43.270       56
   43.285       44
   43.300       45
   43.315       54
   43.330       42
   43.345       44
   43.360       49
   43.375       44
   43.390       48
   43.405       47
   43.420       44
   43.435       52
   43.450       54
   43.465       53
   43.480       43
   43.495       48
   43.510       53
   43.525       47
   43.540       40
   43.555       40
   43.570       44
   43.585       44
   43.600       55
   43.615       45
   43.630       42
   43.645       44
   43.660       43
   43.675       44
   43.690       42
   43.705       45
   43.720       44
   43.735       47
   43.750       42
   43.765       52
   43.780       56
   43.795       47
   43.810       42
   43.825       50
   43.840       45
   43.855       48
   43.870       42
   43.885       50
   43.900       48
   43.915       45
   43.930       41
   43.945       34
   43.960       41
   43.975       46
   43.990       49
   44.005       46
   44.020       47
   44.035       45
   44.050       42
   44.065       50
   44.080       43
   44.095       39
   44.110       48
   44.125       44
   44.140       50
   44.155       44
   44.170       42
   44.185       49
   44.200       45
   44.215       49
   44.230       45
   44.245       44
   44.260       44
   44.275       48
   44.290       37
   44.305       46
   44.320       48
   44.335       45
   44.350       45
   44.365       56
   44.380       57
   44.395       44
   44.410       51
   44.425       46
   44.440       53
   44.455       54
   44.470       46
   44.485       51
   44.500       49
   44.515       40
   44.530       42
   44.545       46
   44.560       56
   44.575       45
   44.590       45
   44.605       50
   44.620       46
   44.635       50
   44.650       40
   44.665       50
   44.680       48
   44.695       47
   44.710       38
   44.725       50
   44.740       44
   44.755       59
   44.770       47
   44.785       53
   44.800       63
   44.815       52
   44.830       45
   44.845       44
   44.860       36
   44.875       42
   44.890       42
   44.905       50
   44.920       50
   44.935       45
   44.950       48
   44.965       38
   44.980       43
   44.995       51
   45.010       40
   45.025       50
   45.040       55
   45.055       56
   45.070       55
   45.085       54
   45.100       53
   45.115       42
   45.130       52
   45.145       56
   45.160       45
   45.175       46
   45.190       49
   45.205       53
   45.220       62
   45.235       50
   45.250       47
   45.265       45
   45.280       55
   45.295       47
   45.310       40
   45.325       42
   45.340       41
   45.355       43
   45.370       47
   45.385       39
   45.400       38
   45.415       33
   45.430       43
   45.445       50
   45.460       54
   45.475       43
   45.490       45
   45.505       42
   45.520       36
   45.535       39
   45.550       46
   45.565       46
   45.580       49
   45.595       53
   45.610       46
   45.625       47
   45.640       49
   45.655       49
   45.670       44
   45.685       46
   45.700       59
   45.715       55
   45.730       47
   45.745       62
   45.760       54
   45.775       43
   45.790       35
   45.805       47
   45.820       51
   45.835       43
   45.850       43
   45.865       56
   45.880       44
   45.895       39
   45.910       45
   45.925       44
   45.940       51
   45.955       44
   45.970       49
   45.985       33
