    4.000       42
    4.015       52
    4.030       41
    4.045       50
    4.060       44
    4.075       47
    4.090       47
    4.105       46
    4.120       50
    4.135       47
    4.150       47
    4.165       53
    4.180       31
    4.195       41
    4.210       47
    4.225       55
    4.240       60
    4.255       53
    4.270       47
    4.285       54
    4.300       29
    4.315       49
    4.330       51
    4.345       39
    4.360       50
    4.375       44
    4.390       37
    4.405       34
    4.420       44
    4.435       42
    4.450       43
    4.465       52
    4.480       51
    4.495       45
    4.510       39
    4.525       41
    4.540       39
    4.555       29
    4.570       39
    4.585       43
    4.600       56
    4.615       47
    4.630       51
    4.645       40
    4.660       46
    4.675       38
    4.690       43
    4.705       41
    4.720       50
    4.735       50
    4.750       47
    4.765       52
    4.780       42
    4.795       41
    4.810       43
    4.825       44
    4.840       43
    4.855       45
    4.870       43
    4.885       51
    4.900       56
    4.915       55
    4.930       45
    4.945       50
    4.960       43
    4.975       43
    4.990       47
    5.005       53
    5.020       40
    5.035       45
    5.050       45
    5.065       42
    5.080       45
    5.095       46
    5.110       44
    5.125       40
    5.140       40
    5.155       44
    5.170       44
    5.185       51
    5.200       47
    5.215       41
    5.230       44
    5.245       43
    5.260       49
    5.275       47
    5.290       43
    5.305       43
    5.320       41
    5.335       52
    5.350       47
    5.365       44
    5.380       36
    5.395       39
    5.410       38
    5.425       42
    5.440       47
    5.455       39
    5.470       34
    5.485       36
    5.500       41
    5.515       41
    5.530       32
    5.545       47
    5.560       46
    5.575       38
    5.590       30
    5.605       39
    5.620       40
    5.635       50
    5.650       45
    5.665       42
    5.680       36
    5.695       44
    5.710       46
    5.725       40
    5.740       48
    5.755       44
    5.770       36
    5.785       39
    5.800       38
    5.815       54
    5.830       36
    5.845       47
    5.860       38
    5.875       47
    5.890       39
    5.905       47
    5.920       42
    5.935       46
    5.950       42
    5.965       42
    5.980       43
    5.995       43
    6.010       31
    6.025       39
    6.040       44
    6.055       47
    6.070       49
    6.085       43
    6.100       49
    6.115       40
    6.130       42
    6.145       47
    6.160       54
    6.175       53
    6.190       40
    6.205       46
    6.220       56
    6.235       52
    6.250       39
    6.265       43
    6.280       50
    6.295       43
    6.310       54
    6.325       58
    6.340       76
    6.355       79
    6.370       72
    6.385       77
    6.400       93
    6.415       93
    6.430       88
    6.445       94
    6.460      107
    6.475      111
    6.490      111
    6.505      123
    6.520      161
    6.535      146
    6.550      150
    6.565      174
    6.580      215
    6.595      241
    6.610      290
    6.625      366
    6.640      395
    6.655      344
    6.670      324
    6.685      370
    6.700      292
    6.715      200
    6.730      104
    6.745       69
    6.760       49
    6.775       45
    6.790       33
    6.805       32
    6.820       38
    6.835       44
    6.850       41
    6.865       43
    6.880       43
    6.895       36
    6.910       44
    6.925       39
    6.940       45
    6.955       45
    6.970       44
    6.985       58
    7.000       46
    7.015       48
    7.030       52
    7.045       45
    7.060       54
    7.075       66
    7.090       56
    7.105       62
    7.120       70
    7.135       70
    7.150       71
    7.165       75
    7.180      106
    7.195      117
    7.210      114
    7.225      101
    7.240       82
    7.255       62
    7.270       46
    7.285       40
    7.300       43
    7.315       40
    7.330       38
    7.345       34
    7.360       30
    7.375       34
    7.390       29
    7.405       34
    7.420       36
    7.435       38
    7.450       32
    7.465       41
    7.480       37
    7.495       41
    7.510       35
    7.525       44
    7.540       39
    7.555       37
    7.570       50
    7.585       45
    7.600       45
    7.615       47
    7.630       46
    7.645       42
    7.660       46
    7.675       43
    7.690       45
    7.705       42
    7.720       50
    7.735       39
    7.750       44
    7.765       35
    7.780       40
    7.795       45
    7.810       42
    7.825       46
    7.840       42
    7.855       41
    7.870       44
    7.885       44
    7.900       34
    7.915       39
    7.930       39
    7.945       42
    7.960       44
    7.975       42
    7.990       49
    8.005       44
    8.020       41
    8.035       36
    8.050       44
    8.065       42
    8.080       40
    8.095       36
    8.110       40
    8.125       39
    8.140       40
    8.155       32
    8.170       40
    8.185       46
    8.200       48
    8.215       43
    8.230       42
    8.245       38
    8.260       39
    8.275       31
    8.290       36
    8.305       37
    8.320       48
    8.335       43
    8.350       42
    8.365       38
    8.380       39
    8.395       43
    8.410       42
    8.425       47
    8.440       47
    8.455       46
    8.470       46
    8.485       43
    8.500       36
    8.515       46
    8.530       45
    8.545       44
    8.560       40
    8.575       52
    8.590       53
    8.605       50
    8.620       47
    8.635       44
    8.650       41
    8.665       36
    8.680       40
    8.695       57
    8.710       38
    8.725       46
    8.740       43
    8.755       46
    8.770       50
    8.785       30
    8.800       47
    8.815       36
    8.830       45
    8.845       39
    8.860       41
    8.875       47
    8.890       45
    8.905       37
    8.920       40
    8.935       35
    8.950       32
    8.965       41
    8.980       39
    8.995       41
    9.010       36
    9.025       42
    9.040       44
    9.055       40
    9.070       42
    9.085       46
    9.100       40
    9.115       42
    9.130       39
    9.145       54
    9.160       34
    9.175       41
    9.190       43
    9.205       35
    9.220       34
    9.235       40
    9.250       47
    9.265       42
    9.280       48
    9.295       40
    9.310       47
    9.325       51
    9.340       50
    9.355       36
    9.370       49
    9.385       42
    9.400       44
    9.415       44
    9.430       52
    9.445       42
    9.460       44
    9.475       41
    9.490       39
    9.505       35
    9.520       39
    9.535       36
    9.550       38
    9.565       44
    9.580       38
    9.595       50
    9.610       40
    9.625       44
    9.640       36
    9.655       49
    9.670       46
    9.685       45
    9.700       38
    9.715       47
    9.730       49
    9.745       47
    9.760       54
    9.775       42
    9.790       42
    9.805       52
    9.820       42
    9.835       57
    9.850       49
    9.865       43
    9.880       35
    9.895       43
    9.910       42
    9.925       47
    9.940       39
    9.955       46
    9.970       45
    9.985       37
   10.000       29
   10.015       35
   10.030       43
   10.045       31
   10.060       41
   10.075       50
   10.090       51
   10.105       42
   10.120       38
   10.135       49
   10.150       35
   10.165       52
   10.180       45
   10.195       62
   10.210       47
   10.225       54
   10.240       57
   10.255       58
   10.270       50
   10.285       48
   10.300       52
   10.315       51
   10.330       51
   10.345       55
   10.360       47
   10.375       59
   10.390       56
   10.405       72
   10.420       60
   10.435       53
   10.450       49
   10.465       58
   10.480       62
   10.495       67
   10.510       77
   10.525       88
   10.540       89
   10.555       62
   10.570       40
   10.585       47
   10.600       51
   10.615       49
   10.630       50
   10.645       58
   10.660       53
   10.675       58
   10.690       59
   10.705       70
   10.720       77
   10.735       65
   10.750       75
   10.765       95
   10.780      101
   10.795      114
   10.810      137
   10.825      140
   10.840      143
   10.855      170
   10.870      182
   10.885      203
   10.900      267
   10.915      230
   10.930      175
   10.945      137
   10.960       81
   10.975       62
   10.990       55
   11.005       45
   11.020       43
   11.035       54
   11.050       49
   11.065       49
   11.080       46
   11.095       45
   11.110       49
   11.125       37
   11.140       49
   11.155       50
   11.170       55
   11.185       55
   11.200       48
   11.215       51
   11.230       55
   11.245       59
   11.260       81
   11.275       90
   11.290       77
   11.305       67
   11.320       58
   11.335       54
   11.350       44
   11.365       44
   11.380       47
   11.395       45
   11.410       47
   11.425       57
   11.440       55
   11.455       54
   11.470       58
   11.485       64
   11.500       66
   11.515       57
   11.530       42
   11.545       39
   11.560       38
   11.575       35
   11.590       38
   11.605       42
   11.620       42
   11.635       38
   11.650       34
   11.665       39
   11.680       50
   11.695       47
   11.710       45
   11.725       44
   11.740       50
   11.755       65
   11.770       62
   11.785       56
   11.800       64
   11.815       61
   11.830       79
   11.845       87
   11.860       74
   11.875       67
   11.890       62
   11.905       68
   11.920       60
   11.935       59
   11.950       58
   11.965       58
   11.980       52
   11.995       47
   12.010       62
   12.025       66
   12.040       54
   12.055       64
   12.070       68
   12.085       56
   12.100       51
   12.115       51
   12.130       49
   12.145       56
   12.160       42
   12.175       48
   12.190       33
   12.205       41
   12.220       40
   12.235       41
   12.250       33
   12.265       38
   12.280       42
   12.295       49
   12.310       39
   12.325       37
   12.340       38
   12.355       35
   12.370       43
   12.385       38
   12.400       38
   12.415       48
   12.430       51
   12.445       49
   12.460       45
   12.475       48
   12.490       51
   12.505       56
   12.520       48
   12.535       54
   12.550       51
   12.565       71
   12.580       76
   12.595       72
   12.610       85
   12.625      108
   12.640      103
   12.655      123
   12.670      123
   12.685      160
   12.700      197
   12.715      252
   12.730      306
   12.745      278
   12.760      215
   12.775      183
   12.790      178
   12.805      168
   12.820      160
   12.835      121
   12.850       86
   12.865       71
   12.880       65
   12.895       64
   12.910       46
   12.925       54
   12.940       55
   12.955       60
   12.970       64
   12.985       79
   13.000       96
   13.015       92
   13.030      101
   13.045      120
   13.060      135
   13.075      153
   13.090      180
   13.105      225
   13.120      245
   13.135      207
   13.150      180
   13.165      151
   13.180      152
   13.195      182
   13.210      185
   13.225      226
   13.240      249
   13.255      302
   13.270      391
   13.285      426
   13.300      546
   13.315      570
   13.330      485
   13.345      438
   13.360      438
   13.375      544
   13.390      671
   13.405      908
   13.420      961
   13.435      736
   13.450      457
   13.465      290
   13.480      151
   13.495      122
   13.510       88
   13.525       89
   13.540      109
   13.555      115
   13.570      130
   13.585      137
   13.600      160
   13.615      191
   13.630      230
   13.645      239
   13.660      268
   13.675      282
   13.690      275
   13.705      226
   13.720      173
   13.735      122
   13.750       68
   13.765       56
   13.780       46
   13.795       48
   13.810       54
   13.825       73
   13.840       53
   13.855       59
   13.870       54
   13.885       69
   13.900       79
   13.915       77
   13.930       86
   13.945       79
   13.960       59
   13.975       53
   13.990       49
   14.005       40
   14.020       33
   14.035       44
   14.050       46
   14.065       46
   14.080       52
   14.095       44
   14.110       53
   14.125       55
   14.140       55
   14.155       61
   14.170       49
   14.185       61
   14.200       67
   14.215       68
   14.230       63
   14.245       62
   14.260       75
   14.275       85
   14.290      116
   14.305      125
   14.320      153
   14.335      182
   14.350      173
   14.365      172
   14.380      174
   14.395      170
   14.410      178
   14.425      151
   14.440      150
   14.455      137
   14.470      147
   14.485      147
   14.500      151
   14.515      132
   14.530      136
   14.545      146
   14.560      176
   14.575      203
   14.590      276
   14.605      333
   14.620      298
   14.635      200
   14.650      160
   14.665       87
   14.680       57
   14.695       45
   14.710       51
   14.725       44
   14.740       47
   14.755       46
   14.770       44
   14.785       40
   14.800       41
   14.815       58
   14.830       50
   14.845       56
   14.860       52
   14.875       35
   14.890       54
   14.905       52
   14.920       44
   14.935       47
   14.950       45
   14.965       67
   14.980       66
   14.995       68
   15.010       86
   15.025       91
   15.040      112
   15.055      142
   15.070      195
   15.085      207
   15.100      276
   15.115      311
   15.130      394
   15.145      436
   15.160      502
   15.175      647
   15.190      762
   15.205      802
   15.220      582
   15.235      377
   15.250      216
   15.265      183
   15.280      151
   15.295      128
   15.310      128
   15.325      112
   15.340      116
   15.355      138
   15.370      146
   15.385      147
   15.400      175
   15.415      179
   15.430      198
   15.445      176
   15.460      182
   15.475      156
   15.490      137
   15.505      140
   15.520      127
   15.535      118
   15.550      116
   15.565      126
   15.580      146
   15.595      169
   15.610      224
   15.625      272
   15.640      277
   15.655      266
   15.670      283
   15.685      324
   15.700      360
   15.715      304
   15.730      251
   15.745      170
   15.760      141
   15.775      141
   15.790      168
   15.805      169
   15.820      198
   15.835      192
   15.850      177
   15.865      235
   15.880      226
   15.895      236
   15.910      217
   15.925      175
   15.940      114
   15.955       92
   15.970       75
   15.985       58
   16.000       49
   16.015       55
   16.030       58
   16.045       56
   16.060       60
   16.075       68
   16.090       88
   16.105       90
   16.120       76
   16.135       95
   16.150      133
   16.165      135
   16.180      181
   16.195      217
   16.210      264
   16.225      269
   16.240      273
   16.255      274
   16.270      265
   16.285      197
   16.300      136
   16.315      110
   16.330       92
   16.345       78
   16.360       92
   16.375       99
   16.390      113
   16.405      126
   16.420      138
   16.435      139
   16.450      146
   16.465      178
   16.480      201
   16.495      244
   16.510      286
   16.525      367
   16.540      424
   16.555      436
   16.570      373
   16.585      340
   16.600      280
   16.615      279
   16.630      280
   16.645      329
   16.660      356
   16.675      346
   16.690      322
   16.705      251
   16.720      242
   16.735      249
   16.750      205
   16.765      205
   16.780      210
   16.795      243
   16.810      294
   16.825      303
   16.840      294
   16.855      282
   16.870      289
   16.885      307
   16.900      292
   16.915      290
   16.930      243
   16.945      170
   16.960      119
   16.975      111
   16.990       98
   17.005       85
   17.020       93
   17.035      101
   17.050      115
   17.065      123
   17.080      150
   17.095      186
   17.110      234
   17.125      256
   17.140      278
   17.155      249
   17.170      190
   17.185      153
   17.200      146
   17.215      139
   17.230      146
   17.245      193
   17.260      239
   17.275      267
   17.290      301
   17.305      359
   17.320      410
   17.335      444
   17.350      368
   17.365      297
   17.380      224
   17.395      184
   17.410      135
   17.425      126
   17.440      137
   17.455      129
   17.470      116
   17.485      111
   17.500      109
   17.515       99
   17.530      106
   17.545      109
   17.560      138
   17.575      180
   17.590      231
   17.605      250
   17.620      211
   17.635      189
   17.650      139
   17.665       82
   17.680       67
   17.695       65
   17.710       62
   17.725       71
   17.740       84
   17.755      109
   17.770      132
   17.785      122
   17.800      104
   17.815      101
   17.830       82
   17.845      111
   17.860      110
   17.875       99
   17.890       97
   17.905       85
   17.920       85
   17.935       72
   17.950       67
   17.965       76
   17.980       63
   17.995       62
   18.010       65
   18.025       65
   18.040       55
   18.055       47
   18.070       50
   18.085       55
   18.100       50
   18.115       47
   18.130       47
   18.145       58
   18.160       54
   18.175       46
   18.190       50
   18.205       47
   18.220       43
   18.235       59
   18.250       58
   18.265       62
   18.280       74
   18.295       79
   18.310       81
   18.325      104
   18.340      126
   18.355      130
   18.370      165
   18.385      174
   18.400      209
   18.415      234
   18.430      220
   18.445      188
   18.460      134
   18.475      102
   18.490       83
   18.505       73
   18.520       70
   18.535       60
   18.550       61
   18.565       61
   18.580       55
   18.595       61
   18.610       65
   18.625       70
   18.640       97
   18.655      107
   18.670      110
   18.685      128
   18.700      132
   18.715      142
   18.730      117
   18.745      126
   18.760      140
   18.775      155
   18.790      173
   18.805      149
   18.820      106
   18.835       91
   18.850       77
   18.865       72
   18.880       72
   18.895       64
   18.910       63
   18.925       53
   18.940       63
   18.955       63
   18.970       72
   18.985       97
   19.000       96
   19.015       75
   19.030       88
   19.045       88
   19.060       90
   19.075       85
   19.090       86
   19.105       92
   19.120       91
   19.135       92
   19.150       79
   19.165       57
   19.180       50
   19.195       38
   19.210       46
   19.225       50
   19.240       47
   19.255       49
   19.270       52
   19.285       50
   19.300       44
   19.315       35
   19.330       44
   19.345       39
   19.360       29
   19.375       48
   19.390       44
   19.405       41
   19.420       40
   19.435       50
   19.450       54
   19.465       56
   19.480       64
   19.495       75
   19.510       83
   19.525       75
   19.540       83
   19.555       97
   19.570       89
   19.585      101
   19.600       84
   19.615       87
   19.630       68
   19.645       74
   19.660       92
   19.675      107
   19.690      105
   19.705      124
   19.720      126
   19.735      141
   19.750      143
   19.765      161
   19.780      163
   19.795      124
   19.810       93
   19.825       75
   19.840       78
   19.855       65
   19.870       71
   19.885       69
   19.900       87
   19.915      108
   19.930      148
   19.945      176
   19.960      217
   19.975      266
   19.990      336
   20.005      468
   20.020      527
   20.035      522
   20.050      412
   20.065      367
   20.080      289
   20.095      235
   20.110      250
   20.125      260
   20.140      279
   20.155      285
   20.170      269
   20.185      231
   20.200      171
   20.215      127
   20.230       86
   20.245       77
   20.260       76
   20.275       62
   20.290       69
   20.305       71
   20.320       70
   20.335       82
   20.350       81
   20.365       86
   20.380       67
   20.395       59
   20.410       60
   20.425       66
   20.440       65
   20.455       55
   20.470       43
   20.485       47
   20.500       61
   20.515       55
   20.530       53
   20.545       50
   20.560       43
   20.575       56
   20.590       46
   20.605       46
   20.620       50
   20.635       58
   20.650       68
   20.665       73
   20.680       72
   20.695       81
   20.710       81
   20.725       69
   20.740       51
   20.755       53
   20.770       52
   20.785       64
   20.800       76
   20.815       86
   20.830       94
   20.845      111
   20.860      117
   20.875      127
   20.890      172
   20.905      149
   20.920      142
   20.935      132
   20.950      171
   20.965      130
   20.980      138
   20.995      168
   21.010      185
   21.025      133
   21.040       94
   21.055       77
   21.070       65
   21.085       62
   21.100       63
   21.115       55
   21.130       61
   21.145       59
   21.160       51
   21.175       52
   21.190       42
   21.205       51
   21.220       51
   21.235       54
   21.250       54
   21.265       60
   21.280       68
   21.295       56
   21.310       61
   21.325       69
   21.340       72
   21.355       91
   21.370       90
   21.385       81
   21.400       88
   21.415       77
   21.430       74
   21.445       68
   21.460       66
   21.475       48
   21.490       39
   21.505       47
   21.520       53
   21.535       41
   21.550       36
   21.565       43
   21.580       54
   21.595       52
   21.610       47
   21.625       52
   21.640       67
   21.655       77
   21.670       75
   21.685       95
   21.700      106
   21.715      148
   21.730      158
   21.745      166
   21.760      171
   21.775      158
   21.790      151
   21.805      105
   21.820       99
   21.835      123
   21.850      149
   21.865      182
   21.880      217
   21.895      303
   21.910      445
   21.925      466
   21.940      448
   21.955      325
   21.970      224
   21.985      165
   22.000      135
   22.015      139
   22.030       97
   22.045       89
   22.060       72
   22.075       87
   22.090       71
   22.105       78
   22.120       61
   22.135       49
   22.150       41
   22.165       41
   22.180       32
   22.195       44
   22.210       45
   22.225       50
   22.240       42
   22.255       47
   22.270       39
   22.285       50
   22.300       52
   22.315       43
   22.330       44
   22.345       57
   22.360       49
   22.375       52
   22.390       64
   22.405       70
   22.420       68
   22.435       84
   22.450       90
   22.465       93
   22.480       96
   22.495       84
   22.510       88
   22.525       91
   22.540       97
   22.555       71
   22.570       72
   22.585       59
   22.600       51
   22.615       57
   22.630       58
   22.645       59
   22.660       72
   22.675       95
   22.690       88
   22.705       98
   22.720       93
   22.735      112
   22.750      120
   22.765      134
   22.780      121
   22.795      117
   22.810      113
   22.825       97
   22.840       84
   22.855       74
   22.870       79
   22.885       96
   22.900      106
   22.915      124
   22.930      147
   22.945      162
   22.960      143
   22.975      146
   22.990      135
   23.005      138
   23.020      119
   23.035      105
   23.050       82
   23.065       58
   23.080       54
   23.095       61
   23.110       66
   23.125       60
   23.140       64
   23.155       69
   23.170       73
   23.185       62
   23.200       70
   23.215       77
   23.230       76
   23.245       86
   23.260       81
   23.275       85
   23.290       90
   23.305       96
   23.320       95
   23.335      115
   23.350       99
   23.365       89
   23.380       62
   23.395       64
   23.410       56
   23.425       48
   23.440       54
   23.455       52
   23.470       42
   23.485       57
   23.500       68
   23.515       60
   23.530       67
   23.545       62
   23.560       61
   23.575       49
   23.590       55
   23.605       45
   23.620       54
   23.635       52
   23.650       52
   23.665       46
   23.680       44
   23.695       50
   23.710       56
   23.725       64
   23.740       60
   23.755       63
   23.770       69
   23.785       73
   23.800       76
   23.815       68
   23.830       65
   23.845       56
   23.860       56
   23.875       43
   23.890       49
   23.905       57
   23.920       58
   23.935       54
   23.950       70
   23.965       69
   23.980       55
   23.995       63
   24.010       68
   24.025       55
   24.040       71
   24.055       63
   24.070       61
   24.085       83
   24.100       86
   24.115       94
   24.130       94
   24.145       82
   24.160       77
   24.175       73
   24.190       50
   24.205       48
   24.220       51
   24.235       59
   24.250       58
   24.265       47
   24.280       54
   24.295       45
   24.310       58
   24.325       50
   24.340       61
   24.355       65
   24.370       70
   24.385       74
   24.400       77
   24.415       70
   24.430       50
   24.445       59
   24.460       50
   24.475       34
   24.490       43
   24.505       44
   24.520       47
   24.535       48
   24.550       39
   24.565       51
   24.580       62
   24.595       39
   24.610       49
   24.625       41
   24.640       53
   24.655       53
   24.670       57
   24.685       56
   24.700       72
   24.715       74
   24.730       88
   24.745       93
   24.760      103
   24.775       84
   24.790       75
   24.805       63
   24.820       62
   24.835       62
   24.850       68
   24.865       65
   24.880       67
   24.895       73
   24.910       69
   24.925       53
   24.940       56
   24.955       56
   24.970       58
   24.985       56
   25.000       43
   25.015       43
   25.030       45
   25.045       54
   25.060       66
   25.075       87
   25.090       97
   25.105       96
   25.120      117
   25.135      106
   25.150       91
   25.165       78
   25.180       73
   25.195       62
   25.210       54
   25.225       65
   25.240       61
   25.255       66
   25.270       62
   25.285       60
   25.300       67
   25.315       68
   25.330       67
   25.345       65
   25.360       71
   25.375       70
   25.390       58
   25.405       45
   25.420       42
   25.435       53
   25.450       49
   25.465       63
   25.480       58
   25.495       71
   25.510       87
   25.525       99
   25.540      113
   25.555      105
   25.570       87
   25.585       92
   25.600       58
   25.615       53
   25.630       54
   25.645       56
   25.660       63
   25.675       72
   25.690       73
   25.705       59
   25.720       74
   25.735       86
   25.750      102
   25.765      124
   25.780      121
   25.795      137
   25.810      150
   25.825      135
   25.840      136
   25.855      147
   25.870      120
   25.885       91
   25.900       71
   25.915       65
   25.930       74
   25.945       87
   25.960       94
   25.975      106
   25.990      104
   26.005      134
   26.020      141
   26.035      132
   26.050      113
   26.065      111
   26.080       83
   26.095       75
   26.110       80
   26.125       83
   26.140       74
   26.155       60
   26.170       50
   26.185       61
   26.200       56
   26.215       57
   26.230       64
   26.245       70
   26.260       79
   26.275       80
   26.290       80
   26.305      104
   26.320      125
   26.335      112
   26.350       94
   26.365       87
   26.380       74
   26.395       75
   26.410       60
   26.425       61
   26.440       57
   26.455       48
   26.470       71
   26.485       82
   26.500       78
   26.515       81
   26.530       77
   26.545       64
   26.560       63
   26.575       52
   26.590       46
   26.605       48
   26.620       58
   26.635       50
   26.650       50
   26.665       45
   26.680       47
   26.695       47
   26.710       49
   26.725       46
   26.740       48
   26.755       54
   26.770       63
   26.785       80
   26.800       88
   26.815       80
   26.830       86
   26.845       67
   26.860       63
   26.875       62
   26.890       52
   26.905       53
   26.920       63
   26.935       64
   26.950       60
   26.965       72
   26.980       84
   26.995       86
   27.010      113
   27.025      121
   27.040      138
   27.055      142
   27.070      126
   27.085      137
   27.100      147
   27.115      143
   27.130      129
   27.145      126
   27.160      115
   27.175       94
   27.190       83
   27.205       72
   27.220       62
   27.235       60
   27.250       56
   27.265       53
   27.280       58
   27.295       55
   27.310       43
   27.325       52
   27.340       65
   27.355       66
   27.370       62
   27.385       71
   27.400       80
   27.415       79
   27.430       62
   27.445       57
   27.460       61
   27.475       69
   27.490       66
   27.505       59
   27.520       82
   27.535       79
   27.550       97
   27.565       95
   27.580       97
   27.595       85
   27.610       81
   27.625       94
   27.640       94
   27.655      105
   27.670      123
   27.685      150
   27.700      149
   27.715      150
   27.730      186
   27.745      200
   27.760      187
   27.775      179
   27.790      161
   27.805      131
   27.820      108
   27.835      115
   27.850      106
   27.865       80
   27.880       73
   27.895       73
   27.910       83
   27.925       76
   27.940       82
   27.955       87
   27.970       97
   27.985      113
   28.000      103
   28.015      130
   28.030      121
   28.045      115
   28.060      114
   28.075      105
   28.090       92
   28.105       80
   28.120       85
   28.135       77
   28.150       75
   28.165       76
   28.180       60
   28.195       64
   28.210       80
   28.225       75
   28.240       77
   28.255       68
   28.270       67
   28.285       74
   28.300       65
   28.315       74
   28.330       74
   28.345       60
   28.360       70
   28.375       80
   28.390       97
   28.405       75
   28.420       91
   28.435       79
   28.450       80
   28.465       95
   28.480       82
   28.495       89
   28.510       96
   28.525       98
   28.540       98
   28.555      109
   28.570      103
   28.585      106
   28.600       89
   28.615       68
   28.630       68
   28.645       72
   28.660       65
   28.675       55
   28.690       52
   28.705       58
   28.720       54
   28.735       45
   28.750       55
   28.765       64
   28.780       57
   28.795       59
   28.810       68
   28.825       73
   28.840       70
   28.855       69
   28.870       62
   28.885       52
   28.900       50
   28.915       59
   28.930       56
   28.945       66
   28.960       70
   28.975       66
   28.990       81
   29.005       69
   29.020       75
   29.035      100
   29.050       86
   29.065       91
   29.080       93
   29.095       92
   29.110      102
   29.125       96
   29.140       88
   29.155      101
   29.170      110
   29.185      114
   29.200      128
   29.215      129
   29.230      119
   29.245      102
   29.260       84
   29.275       89
   29.290       79
   29.305       81
   29.320       69
   29.335       65
   29.350       86
   29.365       85
   29.380       73
   29.395       80
   29.410       83
   29.425       70
   29.440       67
   29.455       68
   29.470       64
   29.485       69
   29.500       59
   29.515       64
   29.530       60
   29.545       54
   29.560       63
   29.575       57
   29.590       49
   29.605       54
   29.620       62
   29.635       65
   29.650       68
   29.665       81
   29.680       62
   29.695       77
   29.710       89
   29.725       99
   29.740       96
   29.755      108
   29.770      102
   29.785       93
   29.800       91
   29.815      106
   29.830       98
   29.845       99
   29.860      114
   29.875      117
   29.890      119
   29.905      105
   29.920       87
   29.935       87
   29.950       70
   29.965       73
   29.980       69
   29.995       68
   30.010       52
   30.025       47
   30.040       56
   30.055       52
   30.070       65
   30.085       55
   30.100       47
   30.115       47
   30.130       48
   30.145       50
   30.160       41
   30.175       46
   30.190       49
   30.205       57
   30.220       69
   30.235       53
   30.250       49
   30.265       58
   30.280       61
   30.295       43
   30.310       47
   30.325       49
   30.340       40
   30.355       53
   30.370       44
   30.385       53
   30.400       55
   30.415       47
   30.430       63
   30.445       60
   30.460       56
   30.475       68
   30.490       60
   30.505       54
   30.520       52
   30.535       59
   30.550       60
   30.565       69
   30.580       76
   30.595       56
   30.610       59
   30.625       77
   30.640       77
   30.655       88
   30.670       89
   30.685       87
   30.700       99
   30.715       94
   30.730       80
   30.745       81
   30.760       88
   30.775       82
   30.790       77
   30.805       81
   30.820       78
   30.835       83
   30.850       93
   30.865       69
   30.880       81
   30.895       76
   30.910       68
   30.925       64
   30.940       57
   30.955       51
   30.970       47
   30.985       52
   31.000       51
   31.015       58
   31.030       65
   31.045       61
   31.060       75
   31.075       84
   31.090       92
   31.105       92
   31.120       88
   31.135       77
   31.150       96
   31.165       96
   31.180       85
   31.195       90
   31.210       82
   31.225       88
   31.240       78
   31.255       63
   31.270       63
   31.285       60
   31.300       58
   31.315       59
   31.330       55
   31.345       68
   31.360       64
   31.375       70
   31.390       71
   31.405       80
   31.420       73
   31.435       75
   31.450       70
   31.465       83
   31.480       82
   31.495       73
   31.510       84
   31.525       67
   31.540       64
   31.555       74
   31.570       83
   31.585       78
   31.600       62
   31.615       68
   31.630       66
   31.645       78
   31.660       76
   31.675       73
   31.690       74
   31.705       82
   31.720       95
   31.735       87
   31.750       86
   31.765       91
   31.780       80
   31.795       78
   31.810       81
   31.825       86
   31.840       74
   31.855       77
   31.870       89
   31.885      113
   31.900      103
   31.915       95
   31.930       95
   31.945       88
   31.960       85
   31.975       73
   31.990       67
   32.005       62
   32.020       79
   32.035       81
   32.050       92
   32.065      102
   32.080       87
   32.095       85
   32.110       88
   32.125       99
   32.140       86
   32.155       92
   32.170       74
   32.185       69
   32.200       71
   32.215       64
   32.230       69
   32.245       73
   32.260       71
   32.275       74
   32.290       78
   32.305       81
   32.320       79
   32.335       64
   32.350       73
   32.365       61
   32.380       59
   32.395       64
   32.410       58
   32.425       54
   32.440       64
   32.455       61
   32.470       63
   32.485       65
   32.500       56
   32.515       56
   32.530       58
   32.545       69
   32.560       69
   32.575       65
   32.590       66
   32.605       68
   32.620       62
   32.635       59
   32.650       59
   32.665       46
   32.680       51
   32.695       53
   32.710       42
   32.725       56
   32.740       46
   32.755       35
   32.770       47
   32.785       50
   32.800       47
   32.815       54
   32.830       42
   32.845       35
   32.860       36
   32.875       56
   32.890       40
   32.905       37
   32.920       48
   32.935       52
   32.950       63
   32.965       60
   32.980       48
   32.995       61
   33.010       53
   33.025       55
   33.040       70
   33.055       58
   33.070       75
   33.085       85
   33.100       87
   33.115       89
   33.130       86
   33.145       75
   33.160       74
   33.175       70
   33.190       72
   33.205       64
   33.220       60
   33.235       62
   33.250       63
   33.265       58
   33.280       53
   33.295       64
   33.310       65
   33.325       64
   33.340       57
   33.355       71
   33.370       49
   33.385       46
   33.400       53
   33.415       56
   33.430       62
   33.445       59
   33.460       59
   33.475       52
   33.490       53
   33.505       53
   33.520       51
   33.535       56
   33.550       49
   33.565       54
   33.580       71
   33.595       83
   33.610       76
   33.625       87
   33.640      103
   33.655       93
   33.670      105
   33.685       95
   33.700      119
   33.715      110
   33.730       93
   33.745       88
   33.760       87
   33.775       83
   33.790       95
   33.805       77
   33.820       66
   33.835       67
   33.850       66
   33.865       76
   33.880       70
   33.895       72
   33.910       62
   33.925       74
   33.940       77
   33.955       99
   33.970       93
   33.985       99
   34.000       84
   34.015       94
   34.030       89
   34.045       92
   34.060       76
   34.075       74
   34.090       68
   34.105       60
   34.120       70
   34.135       65
   34.150       80
   34.165       73
   34.180       73
   34.195       74
   34.210       75
   34.225       76
   34.240       85
   34.255      101
   34.270       82
   34.285       77
   34.300       81
   34.315       76
   34.330       68
   34.345       56
   34.360       59
   34.375       57
   34.390       57
   34.405       49
   34.420       57
   34.435       61
   34.450       48
   34.465       56
   34.480       56
   34.495       41
   34.510       49
   34.525       52
   34.540       56
   34.555       49
   34.570       54
   34.585       45
   34.600       46
   34.615       57
   34.630       46
   34.645       51
   34.660       60
   34.675       65
   34.690       57
   34.705       70
   34.720       74
   34.735       67
   34.750       56
   34.765       63
   34.780       46
   34.795       41
   34.810       46
   34.825       53
   34.840       49
   34.855       42
   34.870       48
   34.885       57
   34.900       56
   34.915       54
   34.930       45
   34.945       52
   34.960       57
   34.975       56
   34.990       72
   35.005       61
   35.020       65
   35.035       53
   35.050       60
   35.065       66
   35.080       51
   35.095       53
   35.110       51
   35.125       55
   35.140       48
   35.155       44
   35.170       52
   35.185       64
   35.200       59
   35.215       62
   35.230       68
   35.245       70
   35.260       71
   35.275       61
   35.290       62
   35.305       72
   35.320       80
   35.335       73
   35.350       62
   35.365       60
   35.380       58
   35.395       74
   35.410       80
   35.425       72
   35.440       70
   35.455       65
   35.470       72
   35.485       66
   35.500       65
   35.515       69
   35.530       71
   35.545       77
   35.560       77
   35.575       82
   35.590       85
   35.605       86
   35.620       99
   35.635      100
   35.650      101
   35.665       82
   35.680       96
   35.695       79
   35.710       82
   35.725       80
   35.740       95
   35.755       94
   35.770       91
   35.785       83
   35.800       88
   35.815       78
   35.830       73
   35.845       62
   35.860       74
   35.875       61
   35.890       61
   35.905       67
   35.920       67
   35.935       67
   35.950       56
   35.965       60
   35.980       51
   35.995       52
   36.010       61
   36.025       53
   36.040       56
   36.055       52
   36.070       51
   36.085       56
   36.100       56
   36.115       61
   36.130       48
   36.145       52
   36.160       51
   36.175       47
   36.190       45
   36.205       55
   36.220       44
   36.235       46
   36.250       42
   36.265       45
   36.280       50
   36.295       55
   36.310       47
   36.325       49
   36.340       41
   36.355       43
   36.370       47
   36.385       48
   36.400       49
   36.415       51
   36.430       44
   36.445       54
   36.460       64
   36.475       46
   36.490       71
   36.505       85
   36.520       58
   36.535       67
   36.550       53
   36.565       53
   36.580       50
   36.595       45
   36.610       51
   36.625       51
   36.640       53
   36.655       42
   36.670       51
   36.685       53
   36.700       56
   36.715       55
   36.730       65
   36.745       53
   36.760       46
   36.775       52
   36.790       50
   36.805       43
   36.820       58
   36.835       54
   36.850       52
   36.865       56
   36.880       41
   36.895       46
   36.910       56
   36.925       55
   36.940       61
   36.955       62
   36.970       71
   36.985       64
   37.000       71
   37.015       65
   37.030       63
   37.045       47
   37.060       59
   37.075       53
   37.090       77
   37.105       62
   37.120       50
   37.135       70
   37.150       55
   37.165       49
   37.180       55
   37.195       53
   37.210       49
   37.225       50
   37.240       44
   37.255       60
   37.270       63
   37.285       67
   37.300       69
   37.315       64
   37.330       63
   37.345       54
   37.360       59
   37.375       54
   37.390       55
   37.405       60
   37.420       63
   37.435       67
   37.450       62
   37.465       62
   37.480       68
   37.495       79
   37.510       64
   37.525       50
   37.540       48
   37.555       57
   37.570       54
   37.585       45
   37.600       45
   37.615       45
   37.630       44
   37.645       35
   37.660       43
   37.675       49
   37.690       43
   37.705       41
   37.720       55
   37.735       40
   37.750       46
   37.765       49
   37.780       51
   37.795       48
   37.810       49
   37.825       52
   37.840       56
   37.855       65
   37.870       56
   37.885       52
   37.900       57
   37.915       59
   37.930       51
   37.945       46
   37.960       49
   37.975       47
   37.990       60
   38.005       56
   38.020       53
   38.035       49
   38.050       60
   38.065       49
   38.080       54
   38.095       51
   38.110       44
   38.125       44
   38.140       47
   38.155       47
   38.170       54
   38.185       60
   38.200       55
   38.215       65
   38.230       67
   38.245       55
   38.260       53
   38.275       57
   38.290       54
   38.305       46
   38.320       43
   38.335       44
   38.350       37
   38.365       51
   38.380       50
   38.395       49
   38.410       61
   38.425       64
   38.440       64
   38.455       55
   38.470       45
   38.485       50
   38.500       50
   38.515       52
   38.530       69
   38.545       68
   38.560       53
   38.575       65
   38.590       80
   38.605       86
   38.620       73
   38.635       56
   38.650       53
   38.665       46
   38.680       42
   38.695       55
   38.710       47
   38.725       53
   38.740       29
   38.755       49
   38.770       50
   38.785       60
   38.800       48
   38.815       60
   38.830       56
   38.845       60
   38.860       59
   38.875       59
   38.890       53
   38.905       60
   38.920       63
   38.935       70
   38.950       55
   38.965       76
   38.980       57
   38.995       62
   39.010       44
   39.025       44
   39.040       56
   39.055       69
   39.070       64
   39.085       58
   39.100       65
   39.115       65
   39.130       64
   39.145       67
   39.160       60
   39.175       62
   39.190       69
   39.205       57
   39.220       59
   39.235       47
   39.250       52
   39.265       60
   39.280       67
   39.295       59
   39.310       60
   39.325       50
   39.340       54
   39.355       52
   39.370       56
   39.385       53
   39.400       65
   39.415       53
   39.430       51
   39.445       53
   39.460       54
   39.475       51
   39.490       49
   39.505       46
   39.520       49
   39.535       48
   39.550       46
   39.565       50
   39.580       41
   39.595       55
   39.610       42
   39.625       48
   39.640       55
   39.655       48
   39.670       43
   39.685       45
   39.700       43
   39.715       54
   39.730       38
   39.745       49
   39.760       42
   39.775       47
   39.790       53
   39.805       43
   39.820       42
   39.835       45
   39.850       47
   39.865       41
   39.880       49
   39.895       54
   39.910       50
   39.925       45
   39.940       51
   39.955       52
   39.970       68
   39.985       57
   40.000       56
   40.015       49
   40.030       53
   40.045       67
   40.060       62
   40.075       61
   40.090       84
   40.105       66
   40.120       65
   40.135       72
   40.150       66
   40.165       58
   40.180       52
   40.195       55
   40.210       52
   40.225       52
   40.240       51
   40.255       43
   40.270       50
   40.285       47
   40.300       54
   40.315       49
   40.330       41
   40.345       56
   40.360       50
   40.375       53
   40.390       51
   40.405       57
   40.420       54
   40.435       58
   40.450       50
   40.465       55
   40.480       49
   40.495       51
   40.510       49
   40.525       48
   40.540       53
   40.555       43
   40.570       46
   40.585       59
   40.600       66
   40.615       67
   40.630       58
   40.645       54
   40.660       51
   40.675       57
   40.690       69
   40.705       62
   40.720       60
   40.735       68
   40.750       62
   40.765       58
   40.780       46
   40.795       52
   40.810       42
   40.825       52
   40.840       46
   40.855       40
   40.870       50
   40.885       47
   40.900       40
   40.915       57
   40.930       50
   40.945       60
   40.960       67
   40.975       65
   40.990       59
   41.005       60
   41.020       55
   41.035       57
   41.050       49
   41.065       51
   41.080       60
   41.095       60
   41.110       43
   41.125       41
   41.140       46
   41.155       52
   41.170       45
   41.185       42
   41.200       44
   41.215       45
   41.230       43
   41.245       36
   41.260       41
   41.275       37
   41.290       45
   41.305       48
   41.320       44
   41.335       43
   41.350       40
   41.365       50
   41.380       46
   41.395       49
   41.410       45
   41.425       45
   41.440       38
   41.455       39
   41.470       42
   41.485       38
   41.500       35
   41.515       42
   41.530       39
   41.545       33
   41.560       36
   41.575       30
   41.590       42
   41.605       49
   41.620       41
   41.635       39
   41.650       39
   41.665       48
   41.680       44
   41.695       33
   41.710       38
   41.725       40
   41.740       39
   41.755       54
   41.770       39
   41.785       46
   41.800       42
   41.815       53
   41.830       42
   41.845       49
   41.860       36
   41.875       39
   41.890       44
   41.905       56
   41.920       48
   41.935       41
   41.950       48
   41.965       47
   41.980       53
   41.995       57
   42.010       54
   42.025       53
   42.040       52
   42.055       54
   42.070       55
   42.085       47
   42.100       52
   42.115       48
   42.130       40
   42.145       45
   42.160       49
   42.175       47
   42.190       56
   42.205       46
   42.220       46
   42.235       53
   42.250       44
   42.265       40
   42.280       43
   42.295       40
   42.310       37
   42.325       40
   42.340       56
   42.355       59
   42.370       54
   42.385       50
   42.400       42
   42.415       54
   42.430       40
   42.445       42
   42.460       51
   42.475       43
   42.490       50
   42.505       43
   42.520       54
   42.535       56
   42.550       59
   42.565       52
   42.580       59
   42.595       56
   42.610       61
   42.625       59
   42.640       48
   42.655       56
   42.670       47
   42.685       44
   42.700       42
   42.715       57
   42.730       49
   42.745       54
   42.760       50
   42.775       55
   42.790       37
   42.805       40
   42.820       48
   42.835       34
   42.850       47
   42.865       40
   42.880       39
   42.895       43
   42.910       42
   42.925       42
   42.940       40
   42.955       46
   42.970       39
   42.985       41
   43.000       44
   43.015       52
   43.030       47
   43.045       46
   43.060       47
   43.075       47
   43.090       47
   43.105       42
   43.120       46
   43.135       38
   43.150       38
   43.165       45
   43.180       46
   43.195       43
   43.210       38
   43.225       41
   43.240       43
   43.255       45
   43.270       35
   43.285       44
   43.300       39
   43.315       37
   43.330       51
   43.345       55
   43.360       38
   43.375       41
   43.390       42
   43.405       42
   43.420       49
   43.435       41
   43.450       47
   43.465       57
   43.480       54
   43.495       41
   43.510       46
   43.525       49
   43.540       47
   43.555       42
   43.570       45
   43.585       34
   43.600       36
   43.615       48
   43.630       56
   43.645       42
   43.660       37
   43.675       39
   43.690       35
   43.705       50
   43.720       46
   43.735       44
   43.750       37
   43.765       44
   43.780       44
   43.795       43
   43.810       41
   43.825       46
   43.840       45
   43.855       38
   43.870       45
   43.885       53
   43.900       50
   43.915       39
   43.930       55
   43.945       39
   43.960       38
   43.975       43
   43.990       43
   44.005       39
   44.020       42
   44.035       42
   44.050       47
   44.065       46
   44.080       40
   44.095       45
   44.110       44
   44.125       50
   44.140       35
   44.155       41
   44.170       38
   44.185       40
   44.200       39
   44.215       46
   44.230       50
   44.245       55
   44.260       55
   44.275       45
   44.290       42
   44.305       46
   44.320       58
   44.335       61
   44.350       50
   44.365       50
   44.380       56
   44.395       54
   44.410       52
   44.425       51
   44.440       55
   44.455       55
   44.470       56
   44.485       57
   44.500       41
   44.515       44
   44.530       50
   44.545       55
   44.560       59
   44.575       62
   44.590       42
   44.605       48
   44.620       45
   44.635       53
   44.650       48
   44.665       52
   44.680       51
   44.695       52
   44.710       59
   44.725       50
   44.740       52
   44.755       52
   44.770       51
   44.785       37
   44.800       58
   44.815       51
   44.830       48
   44.845       52
   44.860       38
   44.875       49
   44.890       44
   44.905       39
   44.920       41
   44.935       58
   44.950       45
   44.965       41
   44.980       40
   44.995       48
   45.010       45
   45.025       46
   45.040       60
   45.055       50
   45.070       56
   45.085       54
   45.100       54
   45.115       39
   45.130       48
   45.145       49
   45.160       47
   45.175       53
   45.190       58
   45.205       44
   45.220       57
   45.235       57
   45.250       52
   45.265       40
   45.280       51
   45.295       57
   45.310       53
   45.325       52
   45.340       53
   45.355       47
   45.370       51
   45.385       47
   45.400       51
   45.415       58
   45.430       58
   45.445       46
   45.460       46
   45.475       55
   45.490       47
   45.505       54
   45.520       50
   45.535       53
   45.550       46
   45.565       43
   45.580       40
   45.595       44
   45.610       47
   45.625       54
   45.640       56
   45.655       43
   45.670       41
   45.685       56
   45.700       39
   45.715       47
   45.730       50
   45.745       49
   45.760       48
   45.775       48
   45.790       48
   45.805       45
   45.820       38
   45.835       50
   45.850       51
   45.865       48
   45.880       45
   45.895       43
   45.910       40
   45.925       49
   45.940       45
   45.955       39
   45.970       45
   45.985       34
