    4.000      206
    4.015      209
    4.030      191
    4.045      222
    4.060      206
    4.075      212
    4.090      190
    4.105      201
    4.120      227
    4.135      240
    4.150      211
    4.165      235
    4.180      210
    4.195      213
    4.210      208
    4.225      203
    4.240      208
    4.255      217
    4.270      210
    4.285      227
    4.300      205
    4.315      228
    4.330      220
    4.345      189
    4.360      192
    4.375      219
    4.390      221
    4.405      201
    4.420      202
    4.435      190
    4.450      209
    4.465      207
    4.480      208
    4.495      198
    4.510      206
    4.525      214
    4.540      196
    4.555      195
    4.570      198
    4.585      228
    4.600      228
    4.615      214
    4.630      208
    4.645      191
    4.660      187
    4.675      206
    4.690      229
    4.705      211
    4.720      211
    4.735      189
    4.750      207
    4.765      188
    4.780      207
    4.795      205
    4.810      202
    4.825      204
    4.840      207
    4.855      206
    4.870      188
    4.885      220
    4.900      209
    4.915      202
    4.930      221
    4.945      218
    4.960      206
    4.975      217
    4.990      206
    5.005      198
    5.020      186
    5.035      188
    5.050      196
    5.065      200
    5.080      192
    5.095      196
    5.110      199
    5.125      215
    5.140      211
    5.155      199
    5.170      177
    5.185      176
    5.200      212
    5.215      221
    5.230      205
    5.245      184
    5.260      186
    5.275      186
    5.290      199
    5.305      189
    5.320      167
    5.335      164
    5.350      190
    5.365      202
    5.380      179
    5.395      185
    5.410      195
    5.425      188
    5.440      212
    5.455      192
    5.470      185
    5.485      191
    5.500      173
    5.515      173
    5.530      198
    5.545      190
    5.560      194
    5.575      195
    5.590      197
    5.605      218
    5.620      173
    5.635      193
    5.650      204
    5.665      190
    5.680      182
    5.695      202
    5.710      234
    5.725      207
    5.740      194
    5.755      176
    5.770      193
    5.785      197
    5.800      204
    5.815      189
    5.830      206
    5.845      192
    5.860      221
    5.875      197
    5.890      188
    5.905      170
    5.920      187
    5.935      188
    5.950      215
    5.965      200
    5.980      205
    5.995      209
    6.010      215
    6.025      172
    6.040      189
    6.055      174
    6.070      208
    6.085      192
    6.100      175
    6.115      185
    6.130      201
    6.145      189
    6.160      198
    6.175      189
    6.190      191
    6.205      190
    6.220      194
    6.235      197
    6.250      208
    6.265      198
    6.280      221
    6.295      224
    6.310      233
    6.325      231
    6.340      218
    6.355      212
    6.370      243
    6.385      246
    6.400      250
    6.415      261
    6.430      281
    6.445      295
    6.460      296
    6.475      326
    6.490      329
    6.505      365
    6.520      385
    6.535      468
    6.550      416
    6.565      397
    6.580      422
    6.595      472
    6.610      429
    6.625      344
    6.640      259
    6.655      197
    6.670      191
    6.685      198
    6.700      188
    6.715      184
    6.730      200
    6.745      205
    6.760      192
    6.775      184
    6.790      206
    6.805      200
    6.820      181
    6.835      200
    6.850      197
    6.865      173
    6.880      189
    6.895      193
    6.910      201
    6.925      212
    6.940      202
    6.955      202
    6.970      205
    6.985      209
    7.000      239
    7.015      222
    7.030      213
    7.045      214
    7.060      254
    7.075      237
    7.090      276
    7.105      289
    7.120      339
    7.135      320
    7.150      261
    7.165      226
    7.180      186
    7.195      185
    7.210      189
    7.225      168
    7.240      170
    7.255      178
    7.270      180
    7.285      184
    7.300      166
    7.315      182
    7.330      174
    7.345      166
    7.360      178
    7.375      168
    7.390      184
    7.405      188
    7.420      207
    7.435      181
    7.450      191
    7.465      189
    7.480      191
    7.495      200
    7.510      207
    7.525      202
    7.540      229
    7.555      239
    7.570      238
    7.585      245
    7.600      231
    7.615      207
    7.630      188
    7.645      187
    7.660      184
    7.675      196
    7.690      188
    7.705      180
    7.720      175
    7.735      175
    7.750      172
    7.765      171
    7.780      180
    7.795      169
    7.810      163
    7.825      175
    7.840      176
    7.855      173
    7.870      193
    7.885      192
    7.900      163
    7.915      162
    7.930      171
    7.945      166
    7.960      167
    7.975      175
    7.990      188
    8.005      186
    8.020      165
    8.035      172
    8.050      187
    8.065      166
    8.080      175
    8.095      170
    8.110      180
    8.125      180
    8.140      170
    8.155      186
    8.170      172
    8.185      162
    8.200      175
    8.215      182
    8.230      199
    8.245      179
    8.260      183
    8.275      191
    8.290      197
    8.305      192
    8.320      180
    8.335      188
    8.350      187
    8.365      179
    8.380      176
    8.395      188
    8.410      205
    8.425      192
    8.440      182
    8.455      174
    8.470      194
    8.485      197
    8.500      205
    8.515      180
    8.530      184
    8.545      181
    8.560      191
    8.575      208
    8.590      185
    8.605      201
    8.620      180
    8.635      190
    8.650      184
    8.665      171
    8.680      178
    8.695      161
    8.710      166
    8.725      192
    8.740      167
    8.755      200
    8.770      171
    8.785      190
    8.800      186
    8.815      192
    8.830      179
    8.845      176
    8.860      172
    8.875      186
    8.890      200
    8.905      198
    8.920      179
    8.935      185
    8.950      192
    8.965      194
    8.980      178
    8.995      205
    9.010      181
    9.025      177
    9.040      189
    9.055      182
    9.070      191
    9.085      197
    9.100      202
    9.115      204
    9.130      188
    9.145      185
    9.160      201
    9.175      187
    9.190      201
    9.205      195
    9.220      211
    9.235      213
    9.250      194
    9.265      213
    9.280      220
    9.295      198
    9.310      209
    9.325      192
    9.340      186
    9.355      186
    9.370      165
    9.385      180
    9.400      201
    9.415      223
    9.430      185
    9.445      206
    9.460      208
    9.475      199
    9.490      208
    9.505      189
    9.520      199
    9.535      200
    9.550      223
    9.565      214
    9.580      207
    9.595      219
    9.610      210
    9.625      204
    9.640      206
    9.655      205
    9.670      242
    9.685      246
    9.700      280
    9.715      278
    9.730      242
    9.745      216
    9.760      203
    9.775      202
    9.790      216
    9.805      198
    9.820      181
    9.835      191
    9.850      165
    9.865      183
    9.880      190
    9.895      210
    9.910      192
    9.925      166
    9.940      185
    9.955      195
    9.970      192
    9.985      159
   10.000      180
   10.015      191
   10.030      176
   10.045      195
   10.060      213
   10.075      201
   10.090      208
   10.105      198
   10.120      194
   10.135      207
   10.150      206
   10.165      210
   10.180      229
   10.195      256
   10.210      217
   10.225      231
   10.240      247
   10.255      229
   10.270      253
   10.285      276
   10.300      281
   10.315      301
   10.330      329
   10.345      387
   10.360      398
   10.375      404
   10.390      373
   10.405      323
   10.420      352
   10.435      343
   10.450      318
   10.465      265
   10.480      196
   10.495      180
   10.510      193
   10.525      185
   10.540      189
   10.555      211
   10.570      190
   10.585      175
   10.600      174
   10.615      201
   10.630      202
   10.645      221
   10.660      191
   10.675      206
   10.690      216
   10.705      240
   10.720      230
   10.735      264
   10.750      300
   10.765      288
   10.780      251
   10.795      238
   10.810      227
   10.825      217
   10.840      215
   10.855      192
   10.870      188
   10.885      181
   10.900      200
   10.915      230
   10.930      212
   10.945      202
   10.960      206
   10.975      220
   10.990      244
   11.005      231
   11.020      235
   11.035      258
   11.050      274
   11.065      291
   11.080      329
   11.095      326
   11.110      358
   11.125      405
   11.140      409
   11.155      378
   11.170      309
   11.185      248
   11.200      235
   11.215      227
   11.230      221
   11.245      235
   11.260      220
   11.275      242
   11.290      258
   11.305      290
   11.320      276
   11.335      232
   11.350      215
   11.365      200
   11.380      167
   11.395      173
   11.410      174
   11.425      159
   11.440      155
   11.455      179
   11.470      178
   11.485      173
   11.500      156
   11.515      164
   11.530      153
   11.545      152
   11.560      169
   11.575      195
   11.590      199
   11.605      183
   11.620      168
   11.635      177
   11.650      176
   11.665      191
   11.680      205
   11.695      213
   11.710      214
   11.725      254
   11.740      286
   11.755      284
   11.770      326
   11.785      366
   11.800      298
   11.815      285
   11.830      244
   11.845      227
   11.860      218
   11.875      218
   11.890      218
   11.905      218
   11.920      218
   11.935      273
   11.950      264
   11.965      240
   11.980      206
   11.995      187
   12.010      162
   12.025      168
   12.040      172
   12.055      205
   12.070      187
   12.085      181
   12.100      183
   12.115      176
   12.130      164
   12.145      152
   12.160      144
   12.175      160
   12.190      170
   12.205      160
   12.220      173
   12.235      178
   12.250      171
   12.265      189
   12.280      216
   12.295      199
   12.310      209
   12.325      215
   12.340      227
   12.355      287
   12.370      313
   12.385      355
   12.400      449
   12.415      529
   12.430      577
   12.445      677
   12.460      806
   12.475      939
   12.490     1181
   12.505     1404
   12.520     1676
   12.535     1979
   12.550     2009
   12.565     1582
   12.580     1232
   12.595     1087
   12.610     1199
   12.625     1214
   12.640     1225
   12.655     1169
   12.670      936
   12.685      605
   12.700      426
   12.715      338
   12.730      280
   12.745      205
   12.760      247
   12.775      235
   12.790      239
   12.805      244
   12.820      264
   12.835      331
   12.850      315
   12.865      385
   12.880      392
   12.895      509
   12.910      664
   12.925      712
   12.940      759
   12.955      701
   12.970      600
   12.985      565
   13.000      588
   13.015      664
   13.030      759
   13.045      918
   13.060     1178
   13.075     1435
   13.090     1851
   13.105     2166
   13.120     2056
   13.135     1740
   13.150     1494
   13.165     1530
   13.180     1845
   13.195     2130
   13.210     2549
   13.225     3228
   13.240     3910
   13.255     3449
   13.270     2334
   13.285     1344
   13.300      704
   13.315      490
   13.330      420
   13.345      393
   13.360      430
   13.375      413
   13.390      440
   13.405      530
   13.420      549
   13.435      668
   13.450      744
   13.465      812
   13.480      867
   13.495      869
   13.510      907
   13.525      730
   13.540      513
   13.555      362
   13.570      278
   13.585      242
   13.600      231
   13.615      244
   13.630      258
   13.645      272
   13.660      256
   13.675      300
   13.690      363
   13.705      396
   13.720      479
   13.735      538
   13.750      490
   13.765      388
   13.780      278
   13.795      217
   13.810      178
   13.825      160
   13.840      160
   13.855      167
   13.870      170
   13.885      185
   13.900      167
   13.915      159
   13.930      154
   13.945      144
   13.960      175
   13.975      181
   13.990      177
   14.005      190
   14.020      174
   14.035      164
   14.050      191
   14.065      189
   14.080      228
   14.095      238
   14.110      265
   14.125      289
   14.140      345
   14.155      388
   14.170      461
   14.185      508
   14.200      474
   14.215      484
   14.230      437
   14.245      432
   14.260      465
   14.275      522
   14.290      573
   14.305      613
   14.320      695
   14.335      734
   14.350      823
   14.365      960
   14.380     1077
   14.395      949
   14.410      740
   14.425      468
   14.440      301
   14.455      213
   14.470      165
   14.485      178
   14.500      165
   14.515      150
   14.530      142
   14.545      148
   14.560      164
   14.575      158
   14.590      159
   14.605      159
   14.620      163
   14.635      172
   14.650      175
   14.665      155
   14.680      146
   14.695      166
   14.710      171
   14.725      205
   14.740      209
   14.755      233
   14.770      243
   14.785      256
   14.800      285
   14.815      323
   14.830      367
   14.845      494
   14.860      599
   14.875      712
   14.890      828
   14.905      875
   14.920      949
   14.935     1075
   14.950     1263
   14.965     1634
   14.980     1902
   14.995     1690
   15.010     1171
   15.025      757
   15.040      468
   15.055      360
   15.070      322
   15.085      292
   15.100      299
   15.115      307
   15.130      324
   15.145      390
   15.160      397
   15.175      490
   15.190      584
   15.205      567
   15.220      564
   15.235      498
   15.250      443
   15.265      409
   15.280      411
   15.295      366
   15.310      314
   15.325      282
   15.340      269
   15.355      276
   15.370      283
   15.385      288
   15.400      384
   15.415      410
   15.430      468
   15.445      547
   15.460      676
   15.475      788
   15.490      800
   15.505      615
   15.520      454
   15.535      356
   15.550      351
   15.565      344
   15.580      349
   15.595      421
   15.610      490
   15.625      533
   15.640      621
   15.655      662
   15.670      714
   15.685      600
   15.700      463
   15.715      341
   15.730      244
   15.745      197
   15.760      185
   15.775      188
   15.790      190
   15.805      206
   15.820      195
   15.835      231
   15.850      282
   15.865      291
   15.880      315
   15.895      363
   15.910      432
   15.925      451
   15.940      544
   15.955      665
   15.970      840
   15.985     1007
   16.000     1079
   16.015      987
   16.030      698
   16.045      439
   16.060      341
   16.075      304
   16.090      283
   16.105      322
   16.120      341
   16.135      406
   16.150      464
   16.165      533
   16.180      666
   16.195      719
   16.210      638
   16.225      643
   16.240      649
   16.255      808
   16.270      953
   16.285     1159
   16.300     1252
   16.315     1074
   16.330      849
   16.345      698
   16.360      605
   16.375      680
   16.390      767
   16.405      881
   16.420     1119
   16.435     1266
   16.450     1127
   16.465     1005
   16.480      796
   16.495      720
   16.510      710
   16.525      799
   16.540      939
   16.555     1222
   16.570     1341
   16.585     1276
   16.600     1030
   16.615      908
   16.630      816
   16.645      849
   16.660      916
   16.675      916
   16.690      980
   16.705      904
   16.720      765
   16.735      547
   16.750      394
   16.765      315
   16.780      300
   16.795      313
   16.810      316
   16.825      329
   16.840      346
   16.855      413
   16.870      461
   16.885      545
   16.900      655
   16.915      703
   16.930      633
   16.945      530
   16.960      405
   16.975      349
   16.990      294
   17.005      293
   17.020      342
   17.035      370
   17.050      410
   17.065      488
   17.080      531
   17.095      552
   17.110      583
   17.125      559
   17.140      493
   17.155      411
   17.170      352
   17.185      387
   17.200      369
   17.215      348
   17.230      319
   17.245      343
   17.260      347
   17.275      406
   17.290      449
   17.305      557
   17.320      647
   17.335      655
   17.350      575
   17.365      411
   17.380      284
   17.395      226
   17.410      194
   17.425      177
   17.440      164
   17.455      197
   17.470      205
   17.485      202
   17.500      224
   17.515      266
   17.530      275
   17.545      333
   17.560      339
   17.575      331
   17.590      366
   17.605      379
   17.620      411
   17.635      377
   17.650      290
   17.665      209
   17.680      217
   17.695      186
   17.710      194
   17.725      180
   17.740      161
   17.755      162
   17.770      143
   17.785      135
   17.800      128
   17.815      122
   17.830      105
   17.845      125
   17.860      118
   17.875      126
   17.890      134
   17.905      136
   17.920      121
   17.935      138
   17.950      122
   17.965      139
   17.980      138
   17.995      152
   18.010      144
   18.025      171
   18.040      217
   18.055      206
   18.070      252
   18.085      298
   18.100      332
   18.115      359
   18.130      375
   18.145      392
   18.160      405
   18.175      394
   18.190      373
   18.205      297
   18.220      231
   18.235      182
   18.250      159
   18.265      157
   18.280      178
   18.295      188
   18.310      211
   18.325      229
   18.340      247
   18.355      289
   18.370      310
   18.385      391
   18.400      467
   18.415      562
   18.430      539
   18.445      513
   18.460      488
   18.475      498
   18.490      577
   18.505      617
   18.520      721
   18.535      810
   18.550      867
   18.565      755
   18.580      603
   18.595      444
   18.610      320
   18.625      284
   18.640      268
   18.655      270
   18.670      282
   18.685      295
   18.700      321
   18.715      373
   18.730      451
   18.745      490
   18.760      499
   18.775      469
   18.790      423
   18.805      393
   18.820      351
   18.835      322
   18.850      302
   18.865      243
   18.880      209
   18.895      143
   18.910      153
   18.925      146
   18.940      131
   18.955      122
   18.970      163
   18.985      149
   19.000      121
   19.015      140
   19.030      146
   19.045      126
   19.060      133
   19.075      137
   19.090      121
   19.105      134
   19.120      133
   19.135      113
   19.150      129
   19.165      132
   19.180      134
   19.195      133
   19.210      134
   19.225      134
   19.240      136
   19.255      108
   19.270      121
   19.285      118
   19.300      142
   19.315      135
   19.330      170
   19.345      195
   19.360      198
   19.375      226
   19.390      263
   19.405      300
   19.420      343
   19.435      406
   19.450      434
   19.465      449
   19.480      476
   19.495      472
   19.510      421
   19.525      374
   19.540      319
   19.555      280
   19.570      242
   19.585      270
   19.600      297
   19.615      351
   19.630      381
   19.645      466
   19.660      582
   19.675      717
   19.690      890
   19.705     1092
   19.720     1242
   19.735     1262
   19.750     1141
   19.765      883
   19.780      733
   19.795      626
   19.810      621
   19.825      645
   19.840      795
   19.855      889
   19.870      887
   19.885      758
   19.900      608
   19.915      543
   19.930      479
   19.945      389
   19.960      312
   19.975      262
   19.990      249
   20.005      268
   20.020      284
   20.035      295
   20.050      303
   20.065      362
   20.080      353
   20.095      315
   20.110      262
   20.125      217
   20.140      181
   20.155      164
   20.170      148
   20.185      150
   20.200      145
   20.215      140
   20.230      110
   20.245      123
   20.260      144
   20.275      141
   20.290      137
   20.305      140
   20.320      163
   20.335      183
   20.350      179
   20.365      163
   20.380      179
   20.395      186
   20.410      187
   20.425      209
   20.440      198
   20.455      188
   20.470      172
   20.485      200
   20.500      193
   20.515      204
   20.530      239
   20.545      270
   20.560      317
   20.575      370
   20.590      440
   20.605      478
   20.620      478
   20.635      491
   20.650      464
   20.665      469
   20.680      485
   20.695      531
   20.710      511
   20.725      433
   20.740      302
   20.755      233
   20.770      222
   20.785      211
   20.800      214
   20.815      235
   20.830      200
   20.845      218
   20.860      221
   20.875      183
   20.890      182
   20.905      217
   20.920      202
   20.935      237
   20.950      228
   20.965      193
   20.980      182
   20.995      156
   21.010      165
   21.025      168
   21.040      162
   21.055      229
   21.070      218
   21.085      229
   21.100      215
   21.115      186
   21.130      161
   21.145      146
   21.160      133
   21.175      139
   21.190      140
   21.205      155
   21.220      146
   21.235      150
   21.250      172
   21.265      190
   21.280      217
   21.295      232
   21.310      260
   21.325      304
   21.340      347
   21.355      427
   21.370      477
   21.385      583
   21.400      656
   21.415      670
   21.430      654
   21.445      610
   21.460      534
   21.475      491
   21.490      480
   21.505      549
   21.520      582
   21.535      688
   21.550      780
   21.565      931
   21.580     1248
   21.595     1532
   21.610     1899
   21.625     1873
   21.640     1564
   21.655     1114
   21.670      766
   21.685      601
   21.700      523
   21.715      505
   21.730      539
   21.745      512
   21.760      427
   21.775      314
   21.790      232
   21.805      198
   21.820      185
   21.835      171
   21.850      172
   21.865      165
   21.880      151
   21.895      178
   21.910      184
   21.925      165
   21.940      172
   21.955      185
   21.970      187
   21.985      201
   22.000      202
   22.015      197
   22.030      172
   22.045      196
   22.060      198
   22.075      203
   22.090      224
   22.105      220
   22.120      236
   22.135      234
   22.150      237
   22.165      276
   22.180      321
   22.195      319
   22.210      348
   22.225      372
   22.240      359
   22.255      340
   22.270      312
   22.285      280
   22.300      241
   22.315      254
   22.330      276
   22.345      324
   22.360      389
   22.375      474
   22.390      511
   22.405      636
   22.420      613
   22.435      530
   22.450      443
   22.465      351
   22.480      308
   22.495      294
   22.510      290
   22.525      317
   22.540      348
   22.555      374
   22.570      417
   22.585      452
   22.600      531
   22.615      602
   22.630      665
   22.645      641
   22.660      665
   22.675      596
   22.690      546
   22.705      486
   22.720      500
   22.735      434
   22.750      408
   22.765      348
   22.780      275
   22.795      267
   22.810      296
   22.825      320
   22.840      358
   22.855      392
   22.870      414
   22.885      381
   22.900      340
   22.915      284
   22.930      246
   22.945      261
   22.960      285
   22.975      287
   22.990      308
   23.005      339
   23.020      328
   23.035      309
   23.050      260
   23.065      221
   23.080      200
   23.095      168
   23.110      175
   23.125      191
   23.140      224
   23.155      230
   23.170      253
   23.185      286
   23.200      323
   23.215      315
   23.230      317
   23.245      306
   23.260      231
   23.275      188
   23.290      151
   23.305      139
   23.320      137
   23.335      132
   23.350      144
   23.365      140
   23.380      132
   23.395      132
   23.410      153
   23.425      150
   23.440      129
   23.455      151
   23.470      146
   23.485      130
   23.500      125
   23.515      138
   23.530      127
   23.545      137
   23.560      157
   23.575      148
   23.590      162
   23.605      179
   23.620      191
   23.635      204
   23.650      200
   23.665      198
   23.680      178
   23.695      181
   23.710      196
   23.725      213
   23.740      221
   23.755      259
   23.770      282
   23.785      328
   23.800      328
   23.815      302
   23.830      266
   23.845      193
   23.860      177
   23.875      164
   23.890      156
   23.905      152
   23.920      155
   23.935      180
   23.950      205
   23.965      228
   23.980      268
   23.995      319
   24.010      377
   24.025      431
   24.040      424
   24.055      357
   24.070      323
   24.085      273
   24.100      224
   24.115      218
   24.130      196
   24.145      213
   24.160      223
   24.175      199
   24.190      201
   24.205      203
   24.220      236
   24.235      234
   24.250      248
   24.265      272
   24.280      245
   24.295      245
   24.310      229
   24.325      202
   24.340      191
   24.355      165
   24.370      172
   24.385      172
   24.400      146
   24.415      150
   24.430      172
   24.445      183
   24.460      195
   24.475      185
   24.490      171
   24.505      163
   24.520      189
   24.535      178
   24.550      172
   24.565      180
   24.580      147
   24.595      134
   24.610      140
   24.625      137
   24.640      173
   24.655      178
   24.670      197
   24.685      212
   24.700      236
   24.715      310
   24.730      325
   24.745      351
   24.760      337
   24.775      337
   24.790      329
   24.805      307
   24.820      296
   24.835      305
   24.850      278
   24.865      294
   24.880      310
   24.895      305
   24.910      314
   24.925      358
   24.940      363
   24.955      344
   24.970      304
   24.985      266
   25.000      239
   25.015      189
   25.030      189
   25.045      167
   25.060      146
   25.075      142
   25.090      139
   25.105      148
   25.120      161
   25.135      181
   25.150      204
   25.165      223
   25.180      254
   25.195      261
   25.210      319
   25.225      282
   25.240      280
   25.255      274
   25.270      272
   25.285      224
   25.300      226
   25.315      238
   25.330      283
   25.345      332
   25.360      351
   25.375      397
   25.390      482
   25.405      554
   25.420      542
   25.435      550
   25.450      586
   25.465      633
   25.480      585
   25.495      497
   25.510      417
   25.525      319
   25.540      285
   25.555      242
   25.570      243
   25.585      257
   25.600      278
   25.615      316
   25.630      345
   25.645      374
   25.660      372
   25.675      328
   25.690      292
   25.705      255
   25.720      215
   25.735      171
   25.750      170
   25.765      189
   25.780      197
   25.795      189
   25.810      204
   25.825      226
   25.840      238
   25.855      260
   25.870      292
   25.885      314
   25.900      323
   25.915      303
   25.930      246
   25.945      216
   25.960      210
   25.975      198
   25.990      186
   26.005      190
   26.020      172
   26.035      163
   26.050      164
   26.065      170
   26.080      164
   26.095      153
   26.110      169
   26.125      187
   26.140      191
   26.155      194
   26.170      170
   26.185      160
   26.200      135
   26.215      130
   26.230      132
   26.245      130
   26.260      134
   26.275      132
   26.290      135
   26.305      158
   26.320      163
   26.335      173
   26.350      206
   26.365      203
   26.380      266
   26.395      296
   26.410      284
   26.425      232
   26.440      195
   26.455      196
   26.470      170
   26.485      165
   26.500      150
   26.515      154
   26.530      154
   26.545      159
   26.560      169
   26.575      188
   26.590      224
   26.605      254
   26.620      320
   26.635      371
   26.650      447
   26.665      520
   26.680      579
   26.695      580
   26.710      579
   26.725      522
   26.740      524
   26.755      514
   26.770      434
   26.785      375
   26.800      292
   26.815      223
   26.830      217
   26.845      216
   26.860      204
   26.875      205
   26.890      216
   26.905      214
   26.920      212
   26.935      221
   26.950      228
   26.965      229
   26.980      203
   26.995      213
   27.010      188
   27.025      175
   27.040      179
   27.055      155
   27.070      190
   27.085      187
   27.100      199
   27.115      188
   27.130      206
   27.145      210
   27.160      192
   27.175      225
   27.190      250
   27.205      269
   27.220      321
   27.235      379
   27.250      398
   27.265      434
   27.280      442
   27.295      449
   27.310      453
   27.325      411
   27.340      451
   27.355      430
   27.370      437
   27.385      477
   27.400      490
   27.415      455
   27.430      433
   27.445      415
   27.460      371
   27.475      327
   27.490      275
   27.505      272
   27.520      248
   27.535      239
   27.550      258
   27.565      266
   27.580      266
   27.595      262
   27.610      299
   27.625      322
   27.640      294
   27.655      266
   27.670      289
   27.685      263
   27.700      237
   27.715      186
   27.730      183
   27.745      177
   27.760      164
   27.775      157
   27.790      156
   27.805      169
   27.820      159
   27.835      226
   27.850      222
   27.865      263
   27.880      297
   27.895      307
   27.910      300
   27.925      313
   27.940      243
   27.955      247
   27.970      226
   27.985      224
   28.000      260
   28.015      244
   28.030      237
   28.045      239
   28.060      275
   28.075      317
   28.090      309
   28.105      278
   28.120      253
   28.135      247
   28.150      224
   28.165      194
   28.180      190
   28.195      179
   28.210      179
   28.225      181
   28.240      143
   28.255      156
   28.270      142
   28.285      136
   28.300      130
   28.315      117
   28.330      129
   28.345      152
   28.360      142
   28.375      171
   28.390      203
   28.405      215
   28.420      231
   28.435      233
   28.450      265
   28.465      236
   28.480      238
   28.495      218
   28.510      196
   28.525      167
   28.540      178
   28.555      195
   28.570      209
   28.585      246
   28.600      282
   28.615      290
   28.630      320
   28.645      321
   28.660      311
   28.675      267
   28.690      288
   28.705      289
   28.720      269
   28.735      266
   28.750      249
   28.765      246
   28.780      267
   28.795      252
   28.810      272
   28.825      257
   28.840      248
   28.855      250
   28.870      223
   28.885      205
   28.900      210
   28.915      203
   28.930      198
   28.945      223
   28.960      210
   28.975      196
   28.990      216
   29.005      220
   29.020      216
   29.035      210
   29.050      198
   29.065      170
   29.080      166
   29.095      157
   29.110      152
   29.125      174
   29.140      162
   29.155      177
   29.170      186
   29.185      194
   29.200      224
   29.215      246
   29.230      273
   29.245      259
   29.260      253
   29.275      267
   29.290      249
   29.305      260
   29.320      289
   29.335      302
   29.350      339
   29.365      393
   29.380      390
   29.395      441
   29.410      396
   29.425      370
   29.440      346
   29.455      271
   29.470      252
   29.485      227
   29.500      226
   29.515      228
   29.530      204
   29.545      232
   29.560      231
   29.575      208
   29.590      212
   29.605      215
   29.620      243
   29.635      185
   29.650      177
   29.665      168
   29.680      187
   29.695      169
   29.710      155
   29.725      173
   29.740      174
   29.755      177
   29.770      200
   29.785      191
   29.800      200
   29.815      168
   29.830      201
   29.845      159
   29.860      184
   29.875      173
   29.890      176
   29.905      169
   29.920      169
   29.935      160
   29.950      178
   29.965      160
   29.980      172
   29.995      167
   30.010      187
   30.025      179
   30.040      179
   30.055      188
   30.070      200
   30.085      185
   30.100      191
   30.115      175
   30.130      174
   30.145      188
   30.160      184
   30.175      184
   30.190      190
   30.205      199
   30.220      202
   30.235      205
   30.250      221
   30.265      220
   30.280      227
   30.295      242
   30.310      262
   30.325      304
   30.340      302
   30.355      276
   30.370      251
   30.385      215
   30.400      213
   30.415      178
   30.430      166
   30.445      143
   30.460      135
   30.475      136
   30.490      152
   30.505      139
   30.520      128
   30.535      139
   30.550      136
   30.565      158
   30.580      167
   30.595      192
   30.610      213
   30.625      244
   30.640      252
   30.655      260
   30.670      272
   30.685      276
   30.700      284
   30.715      319
   30.730      285
   30.745      270
   30.760      253
   30.775      237
   30.790      247
   30.805      246
   30.820      269
   30.835      245
   30.850      240
   30.865      217
   30.880      176
   30.895      188
   30.910      189
   30.925      188
   30.940      187
   30.955      191
   30.970      185
   30.985      176
   31.000      189
   31.015      219
   31.030      213
   31.045      213
   31.060      218
   31.075      253
   31.090      287
   31.105      240
   31.120      221
   31.135      236
   31.150      213
   31.165      186
   31.180      193
   31.195      212
   31.210      214
   31.225      247
   31.240      242
   31.255      273
   31.270      271
   31.285      292
   31.300      275
   31.315      221
   31.330      238
   31.345      233
   31.360      230
   31.375      219
   31.390      226
   31.405      237
   31.420      281
   31.435      275
   31.450      286
   31.465      288
   31.480      293
   31.495      241
   31.510      284
   31.525      316
   31.540      348
   31.555      392
   31.570      422
   31.585      423
   31.600      442
   31.615      403
   31.630      319
   31.645      276
   31.660      292
   31.675      267
   31.690      280
   31.705      274
   31.720      278
   31.735      287
   31.750      269
   31.765      250
   31.780      283
   31.795      280
   31.810      269
   31.825      262
   31.840      249
   31.855      233
   31.870      211
   31.885      201
   31.900      194
   31.915      184
   31.930      181
   31.945      162
   31.960      152
   31.975      141
   31.990      150
   32.005      154
   32.020      158
   32.035      174
   32.050      177
   32.065      180
   32.080      189
   32.095      206
   32.110      176
   32.125      162
   32.140      167
   32.155      148
   32.170      139
   32.185      148
   32.200      140
   32.215      130
   32.230      138
   32.245      129
   32.260      136
   32.275      126
   32.290      127
   32.305      135
   32.320      153
   32.335      158
   32.350      152
   32.365      142
   32.380      147
   32.395      168
   32.410      146
   32.425      136
   32.440      134
   32.455      155
   32.470      137
   32.485      142
   32.500      147
   32.515      148
   32.530      168
   32.545      174
   32.560      184
   32.575      202
   32.590      230
   32.605      243
   32.620      287
   32.635      302
   32.650      362
   32.665      390
   32.680      404
   32.695      385
   32.710      346
   32.725      334
   32.740      269
   32.755      243
   32.770      213
   32.785      198
   32.800      206
   32.815      221
   32.830      199
   32.845      192
   32.860      228
   32.875      190
   32.890      202
   32.905      194
   32.920      195
   32.935      184
   32.950      194
   32.965      194
   32.980      206
   32.995      229
   33.010      220
   33.025      219
   33.040      242
   33.055      210
   33.070      216
   33.085      236
   33.100      249
   33.115      254
   33.130      304
   33.145      355
   33.160      334
   33.175      348
   33.190      349
   33.205      349
   33.220      329
   33.235      318
   33.250      312
   33.265      309
   33.280      302
   33.295      270
   33.310      262
   33.325      240
   33.340      234
   33.355      221
   33.370      194
   33.385      202
   33.400      187
   33.415      216
   33.430      210
   33.445      240
   33.460      294
   33.475      283
   33.490      328
   33.505      377
   33.520      374
   33.535      337
   33.550      317
   33.565      287
   33.580      234
   33.595      227
   33.610      230
   33.625      254
   33.640      275
   33.655      242
   33.670      247
   33.685      278
   33.700      264
   33.715      241
   33.730      239
   33.745      227
   33.760      225
   33.775      198
   33.790      190
   33.805      184
   33.820      185
   33.835      194
   33.850      186
   33.865      189
   33.880      199
   33.895      176
   33.910      157
   33.925      158
   33.940      161
   33.955      139
   33.970      148
   33.985      151
   34.000      149
   34.015      142
   34.030      155
   34.045      150
   34.060      141
   34.075      173
   34.090      168
   34.105      196
   34.120      192
   34.135      226
   34.150      231
   34.165      236
   34.180      269
   34.195      230
   34.210      249
   34.225      237
   34.240      240
   34.255      217
   34.270      216
   34.285      199
   34.300      175
   34.315      178
   34.330      164
   34.345      173
   34.360      167
   34.375      192
   34.390      219
   34.405      216
   34.420      225
   34.435      200
   34.450      194
   34.465      192
   34.480      180
   34.495      186
   34.510      185
   34.525      190
   34.540      204
   34.555      202
   34.570      187
   34.585      186
   34.600      200
   34.615      205
   34.630      211
   34.645      204
   34.660      204
   34.675      216
   34.690      186
   34.705      186
   34.720      190
   34.735      206
   34.750      235
   34.765      242
   34.780      255
   34.795      270
   34.810      245
   34.825      243
   34.840      251
   34.855      245
   34.870      229
   34.885      232
   34.900      247
   34.915      225
   34.930      248
   34.945      278
   34.960      320
   34.975      328
   34.990      363
   35.005      345
   35.020      341
   35.035      353
   35.050      378
   35.065      392
   35.080      417
   35.095      408
   35.110      396
   35.125      426
   35.140      420
   35.155      373
   35.170      364
   35.185      369
   35.200      354
   35.215      374
   35.230      407
   35.245      423
   35.260      417
   35.275      398
   35.290      402
   35.305      395
   35.320      344
   35.335      336
   35.350      366
   35.365      330
   35.380      297
   35.395      272
   35.410      234
   35.425      209
   35.440      180
   35.455      171
   35.470      170
   35.485      153
   35.500      159
   35.515      158
   35.530      157
   35.545      149
   35.560      147
   35.575      146
   35.590      166
   35.605      154
   35.620      181
   35.635      167
   35.650      149
   35.665      166
   35.680      184
   35.695      160
   35.710      169
   35.725      162
   35.740      162
   35.755      160
   35.770      175
   35.785      160
   35.800      173
   35.815      152
   35.830      146
   35.845      147
   35.860      169
   35.875      167
   35.890      203
   35.905      229
   35.920      257
   35.935      233
   35.950      226
   35.965      214
   35.980      196
   35.995      191
   36.010      158
   36.025      150
   36.040      151
   36.055      153
   36.070      176
   36.085      152
   36.100      149
   36.115      146
   36.130      153
   36.145      152
   36.160      141
   36.175      157
   36.190      145
   36.205      156
   36.220      158
   36.235      140
   36.250      142
   36.265      141
   36.280      147
   36.295      146
   36.310      140
   36.325      163
   36.340      178
   36.355      166
   36.370      174
   36.385      190
   36.400      204
   36.415      169
   36.430      198
   36.445      182
   36.460      199
   36.475      190
   36.490      153
   36.505      145
   36.520      144
   36.535      147
   36.550      150
   36.565      153
   36.580      165
   36.595      176
   36.610      168
   36.625      165
   36.640      175
   36.655      168
   36.670      171
   36.685      168
   36.700      176
   36.715      207
   36.730      186
   36.745      186
   36.760      207
   36.775      214
   36.790      210
   36.805      189
   36.820      176
   36.835      179
   36.850      186
   36.865      186
   36.880      193
   36.895      184
   36.910      185
   36.925      190
   36.940      197
   36.955      191
   36.970      201
   36.985      180
   37.000      176
   37.015      177
   37.030      161
   37.045      142
   37.060      155
   37.075      150
   37.090      133
   37.105      117
   37.120      129
   37.135      133
   37.150      149
   37.165      149
   37.180      140
   37.195      136
   37.210      126
   37.225      130
   37.240      136
   37.255      118
   37.270      136
   37.285      126
   37.300      137
   37.315      127
   37.330      131
   37.345      147
   37.360      145
   37.375      151
   37.390      147
   37.405      162
   37.420      149
   37.435      166
   37.450      165
   37.465      176
   37.480      178
   37.495      170
   37.510      180
   37.525      191
   37.540      179
   37.555      172
   37.570      158
   37.585      174
   37.600      185
   37.615      193
   37.630      212
   37.645      214
   37.660      214
   37.675      207
   37.690      181
   37.705      166
   37.720      145
   37.735      132
   37.750      130
   37.765      146
   37.780      133
   37.795      141
   37.810      131
   37.825      140
   37.840      154
   37.855      152
   37.870      147
   37.885      150
   37.900      129
   37.915      129
   37.930      137
   37.945      120
   37.960      141
   37.975      139
   37.990      142
   38.005      186
   38.020      208
   38.035      224
   38.050      265
   38.065      257
   38.080      255
   38.095      241
   38.110      205
   38.125      190
   38.140      183
   38.155      190
   38.170      197
   38.185      185
   38.200      175
   38.215      184
   38.230      185
   38.245      170
   38.260      184
   38.275      201
   38.290      229
   38.305      192
   38.320      158
   38.335      151
   38.350      170
   38.365      167
   38.380      160
   38.395      156
   38.410      150
   38.425      164
   38.440      158
   38.455      145
   38.470      179
   38.485      179
   38.500      201
   38.515      203
   38.530      194
   38.545      197
   38.560      190
   38.575      191
   38.590      185
   38.605      206
   38.620      197
   38.635      189
   38.650      217
   38.665      182
   38.680      168
   38.695      162
   38.710      191
   38.725      163
   38.740      148
   38.755      183
   38.770      156
   38.785      148
   38.800      151
   38.815      141
   38.830      159
   38.845      153
   38.860      153
   38.875      146
   38.890      137
   38.905      124
   38.920      142
   38.935      146
   38.950      142
   38.965      152
   38.980      137
   38.995      135
   39.010      120
   39.025      115
   39.040      130
   39.055      115
   39.070      134
   39.085      138
   39.100      131
   39.115      125
   39.130      134
   39.145      120
   39.160      120
   39.175      116
   39.190      111
   39.205      114
   39.220      116
   39.235      127
   39.250      125
   39.265      127
   39.280      134
   39.295      135
   39.310      135
   39.325      137
   39.340      165
   39.355      137
   39.370      157
   39.385      174
   39.400      177
   39.415      160
   39.430      192
   39.445      201
   39.460      218
   39.475      215
   39.490      190
   39.505      175
   39.520      171
   39.535      176
   39.550      152
   39.565      159
   39.580      155
   39.595      144
   39.610      140
   39.625      133
   39.640      120
   39.655      123
   39.670      127
   39.685      135
   39.700      140
   39.715      160
   39.730      148
   39.745      145
   39.760      144
   39.775      140
   39.790      143
   39.805      144
   39.820      140
   39.835      129
   39.850      142
   39.865      142
   39.880      142
   39.895      135
   39.910      150
   39.925      163
   39.940      151
   39.955      170
   39.970      181
   39.985      173
   40.000      181
   40.015      202
   40.030      191
   40.045      209
   40.060      222
   40.075      212
   40.090      260
   40.105      251
   40.120      236
   40.135      240
   40.150      233
   40.165      223
   40.180      191
   40.195      183
   40.210      196
   40.225      189
   40.240      169
   40.255      176
   40.270      163
   40.285      177
   40.300      181
   40.315      184
   40.330      196
   40.345      217
   40.360      234
   40.375      228
   40.390      228
   40.405      210
   40.420      250
   40.435      249
   40.450      246
   40.465      209
   40.480      252
   40.495      239
   40.510      217
   40.525      197
   40.540      171
   40.555      190
   40.570      187
   40.585      160
   40.600      152
   40.615      145
   40.630      126
   40.645      142
   40.660      141
   40.675      154
   40.690      158
   40.705      139
   40.720      162
   40.735      151
   40.750      128
   40.765      159
   40.780      147
   40.795      125
   40.810      126
   40.825      130
   40.840      135
   40.855      138
   40.870      128
   40.885      132
   40.900      120
   40.915      123
   40.930      109
   40.945      121
   40.960      101
   40.975      116
   40.990      124
   41.005      111
   41.020      114
   41.035      120
   41.050      122
   41.065      139
   41.080      144
   41.095      153
   41.110      148
   41.125      155
   41.140      143
   41.155      146
   41.170      125
   41.185      126
   41.200      131
   41.215      137
   41.230      132
   41.245      138
   41.260      146
   41.275      141
   41.290      149
   41.305      162
   41.320      167
   41.335      168
   41.350      179
   41.365      166
   41.380      175
   41.395      154
   41.410      151
   41.425      158
   41.440      164
   41.455      168
   41.470      140
   41.485      144
   41.500      142
   41.515      137
   41.530      145
   41.545      144
   41.560      150
   41.575      158
   41.590      155
   41.605      164
   41.620      156
   41.635      167
   41.650      172
   41.665      161
   41.680      149
   41.695      150
   41.710      187
   41.725      188
   41.740      194
   41.755      170
   41.770      171
   41.785      151
   41.800      166
   41.815      151
   41.830      148
   41.845      134
   41.860      148
   41.875      147
   41.890      152
   41.905      160
   41.920      156
   41.935      181
   41.950      177
   41.965      175
   41.980      167
   41.995      159
   42.010      153
   42.025      135
   42.040      132
   42.055      148
   42.070      174
   42.085      139
   42.100      154
   42.115      170
   42.130      154
   42.145      154
   42.160      148
   42.175      134
   42.190      143
   42.205      151
   42.220      128
   42.235      133
   42.250      148
   42.265      129
   42.280      122
   42.295      118
   42.310      133
   42.325      135
   42.340      136
   42.355      131
   42.370      145
   42.385      132
   42.400      130
   42.415      146
   42.430      140
   42.445      140
   42.460      136
   42.475      127
   42.490      128
   42.505      128
   42.520      133
   42.535      115
   42.550      137
   42.565      145
   42.580      137
   42.595      144
   42.610      161
   42.625      152
   42.640      158
   42.655      140
   42.670      151
   42.685      160
   42.700      172
   42.715      162
   42.730      173
   42.745      167
   42.760      148
   42.775      143
   42.790      164
   42.805      156
   42.820      143
   42.835      132
   42.850      136
   42.865      128
   42.880      129
   42.895      118
   42.910      142
   42.925      129
   42.940      105
   42.955      115
   42.970      117
   42.985      125
   43.000      133
   43.015      119
   43.030      118
   43.045      127
   43.060      130
   43.075      144
   43.090      120
   43.105      120
   43.120      130
   43.135      112
   43.150      110
   43.165      127
   43.180      122
   43.195      112
   43.210      137
   43.225      148
   43.240      131
   43.255      125
   43.270      131
   43.285      128
   43.300      145
   43.315      125
   43.330      132
   43.345      149
   43.360      128
   43.375      150
   43.390      130
   43.405      142
   43.420      142
   43.435      146
   43.450      130
   43.465      140
   43.480      129
   43.495      143
   43.510      136
   43.525      134
   43.540      130
   43.555      111
   43.570      140
   43.585      136
   43.600      135
   43.615      138
   43.630      144
   43.645      152
   43.660      145
   43.675      146
   43.690      138
   43.705      148
   43.720      157
   43.735      154
   43.750      167
   43.765      162
   43.780      185
   43.795      186
   43.810      175
   43.825      160
   43.840      151
   43.855      147
   43.870      128
   43.885      153
   43.900      149
   43.915      161
   43.930      162
   43.945      148
   43.960      147
   43.975      132
   43.990      147
   44.005      145
   44.020      160
   44.035      160
   44.050      173
   44.065      166
   44.080      160
   44.095      154
   44.110      152
   44.125      156
   44.140      176
   44.155      173
   44.170      168
   44.185      161
   44.200      140
   44.215      152
   44.230      157
   44.245      172
   44.260      175
   44.275      186
   44.290      214
   44.305      219
   44.320      204
   44.335      191
   44.350      185
   44.365      179
   44.380      152
   44.395      156
   44.410      157
   44.425      152
   44.440      148
   44.455      159
   44.470      134
   44.485      150
   44.500      163
   44.515      138
   44.530      145
   44.545      164
   44.560      150
   44.575      179
   44.590      187
   44.605      196
   44.620      210
   44.635      205
   44.650      214
   44.665      207
   44.680      209
   44.695      221
   44.710      201
   44.725      197
   44.740      197
   44.755      181
   44.770      180
   44.785      203
   44.800      194
   44.815      178
   44.830      205
   44.845      183
   44.860      190
   44.875      200
   44.890      190
   44.905      173
   44.920      160
   44.935      146
   44.950      142
   44.965      148
   44.980      151
   44.995      164
   45.010      123
   45.025      153
   45.040      184
   45.055      170
   45.070      188
   45.085      168
   45.100      152
   45.115      152
   45.130      140
   45.145      168
   45.160      161
   45.175      157
   45.190      140
   45.205      137
   45.220      133
   45.235      133
   45.250      142
   45.265      134
   45.280      129
   45.295      127
   45.310      128
   45.325      124
   45.340      126
   45.355      128
   45.370      118
   45.385      114
   45.400      110
   45.415      116
   45.430      116
   45.445      105
   45.460      111
   45.475      109
   45.490      117
   45.505      119
   45.520      134
   45.535      138
   45.550      137
   45.565      127
   45.580      143
   45.595      138
   45.610      131
   45.625      143
   45.640      136
   45.655      132
   45.670      142
   45.685      162
   45.700      160
   45.715      164
   45.730      170
   45.745      155
   45.760      183
   45.775      177
   45.790      186
   45.805      148
   45.820      144
   45.835      143
   45.850      142
   45.865      131
   45.880      153
   45.895      131
   45.910      106
   45.925      124
   45.940      135
   45.955      136
   45.970      152
   45.985      141
