    4.000      217
    4.015      196
    4.030      202
    4.045      209
    4.060      209
    4.075      203
    4.090      198
    4.105      217
    4.120      206
    4.135      219
    4.150      203
    4.165      200
    4.180      197
    4.195      209
    4.210      198
    4.225      207
    4.240      216
    4.255      218
    4.270      196
    4.285      207
    4.300      190
    4.315      192
    4.330      183
    4.345      189
    4.360      202
    4.375      199
    4.390      208
    4.405      207
    4.420      225
    4.435      219
    4.450      197
    4.465      198
    4.480      193
    4.495      210
    4.510      199
    4.525      180
    4.540      181
    4.555      205
    4.570      183
    4.585      193
    4.600      210
    4.615      206
    4.630      205
    4.645      190
    4.660      192
    4.675      185
    4.690      207
    4.705      198
    4.720      176
    4.735      184
    4.750      200
    4.765      205
    4.780      178
    4.795      194
    4.810      189
    4.825      193
    4.840      184
    4.855      181
    4.870      189
    4.885      179
    4.900      176
    4.915      189
    4.930      192
    4.945      198
    4.960      184
    4.975      188
    4.990      205
    5.005      212
    5.020      203
    5.035      186
    5.050      199
    5.065      184
    5.080      179
    5.095      179
    5.110      195
    5.125      201
    5.140      187
    5.155      172
    5.170      191
    5.185      185
    5.200      169
    5.215      189
    5.230      207
    5.245      204
    5.260      196
    5.275      189
    5.290      187
    5.305      188
    5.320      188
    5.335      181
    5.350      170
    5.365      186
    5.380      194
    5.395      208
    5.410      198
    5.425      201
    5.440      182
    5.455      191
    5.470      178
    5.485      169
    5.500      164
    5.515      195
    5.530      167
    5.545      183
    5.560      190
    5.575      197
    5.590      190
    5.605      193
    5.620      177
    5.635      208
    5.650      180
    5.665      180
    5.680      175
    5.695      177
    5.710      194
    5.725      185
    5.740      193
    5.755      177
    5.770      188
    5.785      198
    5.800      207
    5.815      202
    5.830      192
    5.845      184
    5.860      175
    5.875      196
    5.890      175
    5.905      183
    5.920      194
    5.935      176
    5.950      221
    5.965      192
    5.980      212
    5.995      207
    6.010      182
    6.025      201
    6.040      215
    6.055      191
    6.070      177
    6.085      186
    6.100      173
    6.115      183
    6.130      193
    6.145      180
    6.160      170
    6.175      192
    6.190      199
    6.205      187
    6.220      196
    6.235      197
    6.250      163
    6.265      199
    6.280      212
    6.295      193
    6.310      209
    6.325      211
    6.340      239
    6.355      259
    6.370      256
    6.385      260
    6.400      244
    6.415      241
    6.430      256
    6.445      251
    6.460      307
    6.475      333
    6.490      351
    6.505      391
    6.520      420
    6.535      438
    6.550      421
    6.565      406
    6.580      469
    6.595      452
    6.610      386
    6.625      285
    6.640      220
    6.655      210
    6.670      185
    6.685      183
    6.700      189
    6.715      173
    6.730      173
    6.745      184
    6.760      177
    6.775      183
    6.790      176
    6.805      198
    6.820      163
    6.835      174
    6.850      173
    6.865      173
    6.880      156
    6.895      179
    6.910      167
    6.925      184
    6.940      197
    6.955      212
    6.970      187
    6.985      198
    7.000      212
    7.015      213
    7.030      229
    7.045      231
    7.060      242
    7.075      279
    7.090      298
    7.105      300
    7.120      309
    7.135      244
    7.150      188
    7.165      202
    7.180      177
    7.195      179
    7.210      170
    7.225      165
    7.240      173
    7.255      160
    7.270      151
    7.285      192
    7.300      180
    7.315      191
    7.330      180
    7.345      175
    7.360      183
    7.375      222
    7.390      182
    7.405      180
    7.420      173
    7.435      175
    7.450      174
    7.465      193
    7.480      199
    7.495      207
    7.510      223
    7.525      199
    7.540      235
    7.555      229
    7.570      215
    7.585      220
    7.600      225
    7.615      195
    7.630      183
    7.645      193
    7.660      170
    7.675      165
    7.690      163
    7.705      181
    7.720      171
    7.735      187
    7.750      177
    7.765      167
    7.780      175
    7.795      156
    7.810      175
    7.825      189
    7.840      175
    7.855      174
    7.870      180
    7.885      175
    7.900      169
    7.915      196
    7.930      171
    7.945      170
    7.960      165
    7.975      171
    7.990      172
    8.005      167
    8.020      174
    8.035      186
    8.050      200
    8.065      204
    8.080      194
    8.095      174
    8.110      179
    8.125      181
    8.140      186
    8.155      179
    8.170      169
    8.185      155
    8.200      178
    8.215      177
    8.230      183
    8.245      174
    8.260      175
    8.275      181
    8.290      179
    8.305      168
    8.320      167
    8.335      167
    8.350      161
    8.365      174
    8.380      165
    8.395      182
    8.410      197
    8.425      182
    8.440      188
    8.455      176
    8.470      184
    8.485      203
    8.500      180
    8.515      165
    8.530      134
    8.545      159
    8.560      177
    8.575      168
    8.590      183
    8.605      172
    8.620      158
    8.635      164
    8.650      177
    8.665      195
    8.680      174
    8.695      169
    8.710      182
    8.725      177
    8.740      186
    8.755      171
    8.770      175
    8.785      176
    8.800      180
    8.815      187
    8.830      205
    8.845      190
    8.860      192
    8.875      180
    8.890      153
    8.905      185
    8.920      191
    8.935      176
    8.950      172
    8.965      182
    8.980      178
    8.995      181
    9.010      178
    9.025      161
    9.040      198
    9.055      174
    9.070      170
    9.085      165
    9.100      172
    9.115      190
    9.130      195
    9.145      211
    9.160      177
    9.175      204
    9.190      186
    9.205      200
    9.220      187
    9.235      161
    9.250      182
    9.265      190
    9.280      185
    9.295      193
    9.310      189
    9.325      178
    9.340      193
    9.355      185
    9.370      180
    9.385      191
    9.400      185
    9.415      187
    9.430      178
    9.445      179
    9.460      195
    9.475      184
    9.490      188
    9.505      198
    9.520      211
    9.535      182
    9.550      230
    9.565      195
    9.580      192
    9.595      212
    9.610      208
    9.625      207
    9.640      190
    9.655      213
    9.670      230
    9.685      255
    9.700      267
    9.715      243
    9.730      212
    9.745      206
    9.760      192
    9.775      177
    9.790      170
    9.805      172
    9.820      169
    9.835      182
    9.850      185
    9.865      208
    9.880      187
    9.895      203
    9.910      184
    9.925      189
    9.940      215
    9.955      190
    9.970      187
    9.985      205
   10.000      206
   10.015      172
   10.030      205
   10.045      189
   10.060      191
   10.075      195
   10.090      208
   10.105      191
   10.120      205
   10.135      196
   10.150      197
   10.165      226
   10.180      241
   10.195      219
   10.210      234
   10.225      213
   10.240      241
   10.255      236
   10.270      270
   10.285      264
   10.300      269
   10.315      302
   10.330      310
   10.345      377
   10.360      401
   10.375      380
   10.390      342
   10.405      362
   10.420      306
   10.435      270
   10.450      228
   10.465      209
   10.480      177
   10.495      201
   10.510      188
   10.525      182
   10.540      193
   10.555      201
   10.570      222
   10.585      215
   10.600      213
   10.615      210
   10.630      199
   10.645      205
   10.660      195
   10.675      216
   10.690      209
   10.705      221
   10.720      255
   10.735      270
   10.750      266
   10.765      246
   10.780      223
   10.795      210
   10.810      210
   10.825      209
   10.840      168
   10.855      197
   10.870      174
   10.885      195
   10.900      207
   10.915      200
   10.930      195
   10.945      214
   10.960      237
   10.975      232
   10.990      234
   11.005      230
   11.020      212
   11.035      238
   11.050      281
   11.065      286
   11.080      319
   11.095      350
   11.110      404
   11.125      386
   11.140      331
   11.155      273
   11.170      236
   11.185      210
   11.200      208
   11.215      216
   11.230      208
   11.245      219
   11.260      245
   11.275      259
   11.290      273
   11.305      278
   11.320      227
   11.335      227
   11.350      189
   11.365      158
   11.380      177
   11.395      168
   11.410      174
   11.425      161
   11.440      174
   11.455      171
   11.470      187
   11.485      192
   11.500      168
   11.515      165
   11.530      202
   11.545      182
   11.560      172
   11.575      178
   11.590      186
   11.605      185
   11.620      193
   11.635      219
   11.650      188
   11.665      220
   11.680      207
   11.695      224
   11.710      268
   11.725      264
   11.740      287
   11.755      322
   11.770      304
   11.785      294
   11.800      255
   11.815      215
   11.830      212
   11.845      206
   11.860      190
   11.875      248
   11.890      233
   11.905      242
   11.920      254
   11.935      267
   11.950      239
   11.965      206
   11.980      207
   11.995      197
   12.010      201
   12.025      189
   12.040      186
   12.055      175
   12.070      189
   12.085      176
   12.100      179
   12.115      168
   12.130      176
   12.145      157
   12.160      165
   12.175      177
   12.190      181
   12.205      186
   12.220      192
   12.235      187
   12.250      163
   12.265      195
   12.280      188
   12.295      205
   12.310      236
   12.325      255
   12.340      274
   12.355      298
   12.370      355
   12.385      412
   12.400      457
   12.415      521
   12.430      647
   12.445      747
   12.460      901
   12.475     1038
   12.490     1256
   12.505     1552
   12.520     1898
   12.535     2022
   12.550     1785
   12.565     1425
   12.580     1212
   12.595     1261
   12.610     1317
   12.625     1282
   12.640     1064
   12.655      832
   12.670      581
   12.685      366
   12.700      293
   12.715      253
   12.730      236
   12.745      225
   12.760      234
   12.775      253
   12.790      234
   12.805      280
   12.820      332
   12.835      335
   12.850      375
   12.865      425
   12.880      495
   12.895      580
   12.910      669
   12.925      733
   12.940      631
   12.955      578
   12.970      524
   12.985      599
   13.000      600
   13.015      723
   13.030      892
   13.045     1113
   13.060     1434
   13.075     1848
   13.090     2145
   13.105     2097
   13.120     1808
   13.135     1637
   13.150     1666
   13.165     1983
   13.180     2180
   13.195     2702
   13.210     3477
   13.225     3699
   13.240     2947
   13.255     1758
   13.270      970
   13.285      630
   13.300      469
   13.315      406
   13.330      389
   13.345      395
   13.360      444
   13.375      471
   13.390      492
   13.405      568
   13.420      681
   13.435      777
   13.450      839
   13.465      886
   13.480      878
   13.495      901
   13.510      674
   13.525      451
   13.540      290
   13.555      244
   13.570      248
   13.585      254
   13.600      283
   13.615      278
   13.630      276
   13.645      278
   13.660      310
   13.675      339
   13.690      396
   13.705      497
   13.720      496
   13.735      438
   13.750      328
   13.765      255
   13.780      207
   13.795      179
   13.810      169
   13.825      170
   13.840      168
   13.855      152
   13.870      153
   13.885      181
   13.900      175
   13.915      164
   13.930      172
   13.945      163
   13.960      168
   13.975      167
   13.990      167
   14.005      191
   14.020      197
   14.035      206
   14.050      205
   14.065      239
   14.080      262
   14.095      288
   14.110      277
   14.125      316
   14.140      387
   14.155      455
   14.170      482
   14.185      493
   14.200      453
   14.215      424
   14.230      446
   14.245      472
   14.260      514
   14.275      560
   14.290      539
   14.305      633
   14.320      683
   14.335      795
   14.350      929
   14.365     1037
   14.380      966
   14.395      725
   14.410      446
   14.425      313
   14.440      216
   14.455      206
   14.470      192
   14.485      180
   14.500      158
   14.515      183
   14.530      161
   14.545      162
   14.560      174
   14.575      187
   14.590      187
   14.605      186
   14.620      175
   14.635      179
   14.650      190
   14.665      174
   14.680      180
   14.695      201
   14.710      199
   14.725      213
   14.740      212
   14.755      221
   14.770      244
   14.785      295
   14.800      340
   14.815      407
   14.830      508
   14.845      650
   14.860      720
   14.875      816
   14.890      936
   14.905     1003
   14.920     1139
   14.935     1419
   14.950     1697
   14.965     1813
   14.980     1552
   14.995     1029
   15.010      669
   15.025      429
   15.040      356
   15.055      310
   15.070      290
   15.085      304
   15.100      351
   15.115      378
   15.130      407
   15.145      446
   15.160      525
   15.175      611
   15.190      619
   15.205      597
   15.220      474
   15.235      433
   15.250      434
   15.265      385
   15.280      334
   15.295      310
   15.310      292
   15.325      299
   15.340      287
   15.355      292
   15.370      352
   15.385      403
   15.400      417
   15.415      492
   15.430      566
   15.445      642
   15.460      717
   15.475      712
   15.490      534
   15.505      402
   15.520      354
   15.535      306
   15.550      351
   15.565      356
   15.580      413
   15.595      458
   15.610      578
   15.625      650
   15.640      738
   15.655      695
   15.670      572
   15.685      443
   15.700      313
   15.715      234
   15.730      222
   15.745      196
   15.760      218
   15.775      227
   15.790      239
   15.805      236
   15.820      254
   15.835      274
   15.850      298
   15.865      320
   15.880      358
   15.895      408
   15.910      446
   15.925      505
   15.940      638
   15.955      803
   15.970      998
   15.985     1044
   16.000      901
   16.015      674
   16.030      456
   16.045      330
   16.060      291
   16.075      301
   16.090      325
   16.105      357
   16.120      428
   16.135      502
   16.150      555
   16.165      613
   16.180      652
   16.195      613
   16.210      584
   16.225      699
   16.240      776
   16.255      905
   16.270     1152
   16.285     1205
   16.300     1048
   16.315      845
   16.330      651
   16.345      640
   16.360      654
   16.375      778
   16.390      900
   16.405     1114
   16.420     1099
   16.435      988
   16.450      826
   16.465      740
   16.480      667
   16.495      737
   16.510      853
   16.525      974
   16.540     1207
   16.555     1339
   16.570     1192
   16.585     1001
   16.600      846
   16.615      875
   16.630      918
   16.645      938
   16.660      938
   16.675      916
   16.690      758
   16.705      586
   16.720      424
   16.735      334
   16.750      327
   16.765      290
   16.780      316
   16.795      320
   16.810      349
   16.825      358
   16.840      451
   16.855      523
   16.870      655
   16.885      637
   16.900      603
   16.915      487
   16.930      361
   16.945      304
   16.960      304
   16.975      300
   16.990      315
   17.005      341
   17.020      380
   17.035      434
   17.050      459
   17.065      494
   17.080      541
   17.095      551
   17.110      512
   17.125      449
   17.140      357
   17.155      320
   17.170      326
   17.185      323
   17.200      307
   17.215      306
   17.230      331
   17.245      359
   17.260      411
   17.275      468
   17.290      537
   17.305      623
   17.320      623
   17.335      561
   17.350      410
   17.365      273
   17.380      232
   17.395      218
   17.410      204
   17.425      210
   17.440      211
   17.455      205
   17.470      246
   17.485      254
   17.500      294
   17.515      312
   17.530      316
   17.545      329
   17.560      314
   17.575      338
   17.590      381
   17.605      418
   17.620      360
   17.635      284
   17.650      229
   17.665      218
   17.680      211
   17.695      192
   17.710      180
   17.725      178
   17.740      188
   17.755      192
   17.770      167
   17.785      164
   17.800      158
   17.815      141
   17.830      131
   17.845      138
   17.860      126
   17.875      127
   17.890      137
   17.905      149
   17.920      171
   17.935      156
   17.950      162
   17.965      169
   17.980      175
   17.995      192
   18.010      218
   18.025      220
   18.040      243
   18.055      314
   18.070      313
   18.085      327
   18.100      372
   18.115      413
   18.130      423
   18.145      431
   18.160      407
   18.175      326
   18.190      226
   18.205      194
   18.220      184
   18.235      193
   18.250      182
   18.265      213
   18.280      217
   18.295      221
   18.310      237
   18.325      263
   18.340      292
   18.355      368
   18.370      430
   18.385      511
   18.400      557
   18.415      538
   18.430      508
   18.445      477
   18.460      511
   18.475      550
   18.490      681
   18.505      741
   18.520      800
   18.535      763
   18.550      655
   18.565      530
   18.580      406
   18.595      316
   18.610      284
   18.625      313
   18.640      323
   18.655      325
   18.670      341
   18.685      381
   18.700      423
   18.715      465
   18.730      519
   18.745      525
   18.760      415
   18.775      378
   18.790      362
   18.805      351
   18.820      337
   18.835      268
   18.850      233
   18.865      190
   18.880      164
   18.895      165
   18.910      153
   18.925      146
   18.940      164
   18.955      144
   18.970      165
   18.985      165
   19.000      154
   19.015      169
   19.030      159
   19.045      139
   19.060      156
   19.075      146
   19.090      145
   19.105      138
   19.120      156
   19.135      160
   19.150      140
   19.165      155
   19.180      147
   19.195      133
   19.210      146
   19.225      144
   19.240      138
   19.255      145
   19.270      159
   19.285      174
   19.300      190
   19.315      180
   19.330      197
   19.345      220
   19.360      247
   19.375      271
   19.390      319
   19.405      376
   19.420      399
   19.435      426
   19.450      435
   19.465      442
   19.480      405
   19.495      351
   19.510      310
   19.525      273
   19.540      270
   19.555      277
   19.570      316
   19.585      324
   19.600      344
   19.615      454
   19.630      510
   19.645      627
   19.660      755
   19.675      963
   19.690     1077
   19.705     1180
   19.720     1139
   19.735      965
   19.750      757
   19.765      641
   19.780      613
   19.795      673
   19.810      770
   19.825      848
   19.840      789
   19.855      777
   19.870      680
   19.885      578
   19.900      493
   19.915      397
   19.930      321
   19.945      273
   19.960      248
   19.975      268
   19.990      296
   20.005      304
   20.020      311
   20.035      337
   20.050      351
   20.065      320
   20.080      272
   20.095      213
   20.110      178
   20.125      183
   20.140      164
   20.155      153
   20.170      149
   20.185      158
   20.200      141
   20.215      147
   20.230      146
   20.245      138
   20.260      147
   20.275      152
   20.290      170
   20.305      195
   20.320      172
   20.335      174
   20.350      185
   20.365      201
   20.380      216
   20.395      196
   20.410      205
   20.425      209
   20.440      214
   20.455      197
   20.470      207
   20.485      238
   20.500      238
   20.515      272
   20.530      323
   20.545      377
   20.560      416
   20.575      464
   20.590      453
   20.605      457
   20.620      426
   20.635      424
   20.650      406
   20.665      460
   20.680      446
   20.695      405
   20.710      318
   20.725      256
   20.740      230
   20.755      207
   20.770      219
   20.785      217
   20.800      253
   20.815      220
   20.830      214
   20.845      215
   20.860      193
   20.875      195
   20.890      183
   20.905      222
   20.920      240
   20.935      199
   20.950      208
   20.965      213
   20.980      199
   20.995      191
   21.010      202
   21.025      246
   21.040      239
   21.055      235
   21.070      245
   21.085      218
   21.100      188
   21.115      161
   21.130      150
   21.145      169
   21.160      162
   21.175      184
   21.190      157
   21.205      167
   21.220      181
   21.235      193
   21.250      205
   21.265      207
   21.280      249
   21.295      265
   21.310      296
   21.325      359
   21.340      435
   21.355      548
   21.370      644
   21.385      693
   21.400      667
   21.415      634
   21.430      556
   21.445      474
   21.460      483
   21.475      494
   21.490      527
   21.505      675
   21.520      766
   21.535      935
   21.550     1188
   21.565     1483
   21.580     1772
   21.595     1720
   21.610     1477
   21.625     1080
   21.640      740
   21.655      555
   21.670      552
   21.685      522
   21.700      536
   21.715      466
   21.730      444
   21.745      357
   21.760      276
   21.775      227
   21.790      213
   21.805      172
   21.820      159
   21.835      184
   21.850      184
   21.865      211
   21.880      188
   21.895      207
   21.910      193
   21.925      203
   21.940      198
   21.955      202
   21.970      180
   21.985      198
   22.000      190
   22.015      202
   22.030      204
   22.045      221
   22.060      237
   22.075      233
   22.090      217
   22.105      252
   22.120      276
   22.135      267
   22.150      297
   22.165      345
   22.180      402
   22.195      422
   22.210      363
   22.225      292
   22.240      269
   22.255      237
   22.270      235
   22.285      235
   22.300      266
   22.315      294
   22.330      348
   22.345      397
   22.360      459
   22.375      541
   22.390      580
   22.405      559
   22.420      512
   22.435      401
   22.450      300
   22.465      281
   22.480      292
   22.495      313
   22.510      349
   22.525      386
   22.540      419
   22.555      429
   22.570      504
   22.585      580
   22.600      623
   22.615      666
   22.630      640
   22.645      586
   22.660      493
   22.675      480
   22.690      460
   22.705      412
   22.720      389
   22.735      313
   22.750      276
   22.765      276
   22.780      261
   22.795      327
   22.810      377
   22.825      393
   22.840      420
   22.855      363
   22.870      330
   22.885      310
   22.900      301
   22.915      281
   22.930      281
   22.945      324
   22.960      350
   22.975      354
   22.990      337
   23.005      304
   23.020      262
   23.035      241
   23.050      206
   23.065      189
   23.080      190
   23.095      205
   23.110      226
   23.125      229
   23.140      253
   23.155      291
   23.170      289
   23.185      295
   23.200      271
   23.215      257
   23.230      190
   23.245      172
   23.260      164
   23.275      165
   23.290      156
   23.305      150
   23.320      150
   23.335      150
   23.350      159
   23.365      165
   23.380      141
   23.395      141
   23.410      158
   23.425      160
   23.440      140
   23.455      147
   23.470      148
   23.485      147
   23.500      155
   23.515      161
   23.530      160
   23.545      176
   23.560      182
   23.575      170
   23.590      177
   23.605      205
   23.620      177
   23.635      180
   23.650      182
   23.665      221
   23.680      204
   23.695      225
   23.710      226
   23.725      233
   23.740      278
   23.755      331
   23.770      313
   23.785      280
   23.800      243
   23.815      209
   23.830      172
   23.845      156
   23.860      151
   23.875      166
   23.890      166
   23.905      178
   23.920      219
   23.935      237
   23.950      292
   23.965      365
   23.980      388
   23.995      416
   24.010      429
   24.025      335
   24.040      333
   24.055      268
   24.070      227
   24.085      211
   24.100      218
   24.115      232
   24.130      227
   24.145      216
   24.160      217
   24.175      239
   24.190      257
   24.205      233
   24.220      265
   24.235      252
   24.250      241
   24.265      222
   24.280      223
   24.295      218
   24.310      210
   24.325      200
   24.340      201
   24.355      190
   24.370      188
   24.385      194
   24.400      195
   24.415      217
   24.430      200
   24.445      181
   24.460      179
   24.475      202
   24.490      195
   24.505      168
   24.520      181
   24.535      173
   24.550      155
   24.565      163
   24.580      158
   24.595      177
   24.610      163
   24.625      166
   24.640      182
   24.655      223
   24.670      241
   24.685      302
   24.700      326
   24.715      352
   24.730      336
   24.745      337
   24.760      318
   24.775      277
   24.790      258
   24.805      284
   24.820      286
   24.835      284
   24.850      292
   24.865      297
   24.880      302
   24.895      355
   24.910      347
   24.925      345
   24.940      287
   24.955      285
   24.970      231
   24.985      192
   25.000      202
   25.015      165
   25.030      165
   25.045      159
   25.060      172
   25.075      156
   25.090      175
   25.105      200
   25.120      228
   25.135      219
   25.150      273
   25.165      298
   25.180      311
   25.195      301
   25.210      292
   25.225      281
   25.240      255
   25.255      247
   25.270      252
   25.285      245
   25.300      262
   25.315      310
   25.330      346
   25.345      375
   25.360      455
   25.375      501
   25.390      499
   25.405      538
   25.420      636
   25.435      575
   25.450      496
   25.465      419
   25.480      341
   25.495      268
   25.510      240
   25.525      222
   25.540      246
   25.555      265
   25.570      280
   25.585      307
   25.600      353
   25.615      377
   25.630      348
   25.645      315
   25.660      294
   25.675      240
   25.690      201
   25.705      199
   25.720      198
   25.735      196
   25.750      206
   25.765      219
   25.780      218
   25.795      228
   25.810      223
   25.825      276
   25.840      285
   25.855      272
   25.870      287
   25.885      286
   25.900      307
   25.915      240
   25.930      203
   25.945      204
   25.960      191
   25.975      190
   25.990      211
   26.005      203
   26.020      196
   26.035      189
   26.050      182
   26.065      188
   26.080      182
   26.095      193
   26.110      196
   26.125      188
   26.140      157
   26.155      152
   26.170      159
   26.185      140
   26.200      143
   26.215      141
   26.230      129
   26.245      141
   26.260      165
   26.275      175
   26.290      155
   26.305      173
   26.320      196
   26.335      229
   26.350      254
   26.365      273
   26.380      276
   26.395      245
   26.410      209
   26.425      191
   26.440      192
   26.455      188
   26.470      191
   26.485      177
   26.500      186
   26.515      195
   26.530      209
   26.545      220
   26.560      254
   26.575      283
   26.590      313
   26.605      395
   26.620      463
   26.635      517
   26.650      498
   26.665      528
   26.680      466
   26.695      473
   26.710      482
   26.725      475
   26.740      377
   26.755      301
   26.770      256
   26.785      234
   26.800      235
   26.815      202
   26.830      224
   26.845      220
   26.860      218
   26.875      245
   26.890      207
   26.905      220
   26.920      242
   26.935      232
   26.950      191
   26.965      185
   26.980      200
   26.995      193
   27.010      174
   27.025      168
   27.040      179
   27.055      172
   27.070      191
   27.085      186
   27.100      188
   27.115      200
   27.130      226
   27.145      239
   27.160      248
   27.175      249
   27.190      305
   27.205      351
   27.220      376
   27.235      414
   27.250      458
   27.265      399
   27.280      398
   27.295      399
   27.310      405
   27.325      438
   27.340      459
   27.355      458
   27.370      445
   27.385      465
   27.400      426
   27.415      392
   27.430      358
   27.445      286
   27.460      265
   27.475      247
   27.490      241
   27.505      267
   27.520      249
   27.535      264
   27.550      278
   27.565      291
   27.580      299
   27.595      305
   27.610      282
   27.625      294
   27.640      288
   27.655      249
   27.670      212
   27.685      208
   27.700      197
   27.715      176
   27.730      193
   27.745      174
   27.760      178
   27.775      196
   27.790      198
   27.805      245
   27.820      263
   27.835      260
   27.850      280
   27.865      272
   27.880      280
   27.895      248
   27.910      249
   27.925      237
   27.940      214
   27.955      256
   27.970      233
   27.985      250
   28.000      254
   28.015      276
   28.030      284
   28.045      267
   28.060      286
   28.075      248
   28.090      241
   28.105      222
   28.120      232
   28.135      221
   28.150      196
   28.165      200
   28.180      200
   28.195      179
   28.210      160
   28.225      168
   28.240      160
   28.255      140
   28.270      165
   28.285      154
   28.300      152
   28.315      160
   28.330      180
   28.345      178
   28.360      192
   28.375      200
   28.390      211
   28.405      218
   28.420      219
   28.435      231
   28.450      247
   28.465      210
   28.480      204
   28.495      176
   28.510      191
   28.525      217
   28.540      239
   28.555      268
   28.570      257
   28.585      266
   28.600      304
   28.615      305
   28.630      288
   28.645      272
   28.660      288
   28.675      305
   28.690      302
   28.705      251
   28.720      236
   28.735      241
   28.750      242
   28.765      238
   28.780      260
   28.795      225
   28.810      239
   28.825      265
   28.840      214
   28.855      203
   28.870      224
   28.885      185
   28.900      215
   28.915      201
   28.930      196
   28.945      205
   28.960      216
   28.975      220
   28.990      201
   29.005      188
   29.020      189
   29.035      171
   29.050      187
   29.065      179
   29.080      159
   29.095      188
   29.110      192
   29.125      193
   29.140      211
   29.155      202
   29.170      211
   29.185      222
   29.200      231
   29.215      232
   29.230      246
   29.245      243
   29.260      249
   29.275      259
   29.290      263
   29.305      292
   29.320      331
   29.335      350
   29.350      403
   29.365      399
   29.380      392
   29.395      361
   29.410      293
   29.425      260
   29.440      271
   29.455      277
   29.470      255
   29.485      224
   29.500      218
   29.515      234
   29.530      252
   29.545      230
   29.560      247
   29.575      242
   29.590      219
   29.605      203
   29.620      190
   29.635      168
   29.650      159
   29.665      170
   29.680      182
   29.695      182
   29.710      190
   29.725      193
   29.740      204
   29.755      189
   29.770      173
   29.785      195
   29.800      185
   29.815      175
   29.830      210
   29.845      189
   29.860      165
   29.875      173
   29.890      185
   29.905      177
   29.920      166
   29.935      188
   29.950      196
   29.965      184
   29.980      202
   29.995      185
   30.010      178
   30.025      196
   30.040      191
   30.055      166
   30.070      205
   30.085      192
   30.100      192
   30.115      199
   30.130      200
   30.145      219
   30.160      213
   30.175      200
   30.190      211
   30.205      207
   30.220      212
   30.235      221
   30.250      232
   30.265      263
   30.280      269
   30.295      290
   30.310      279
   30.325      274
   30.340      224
   30.355      213
   30.370      178
   30.385      164
   30.400      164
   30.415      170
   30.430      147
   30.445      149
   30.460      168
   30.475      155
   30.490      157
   30.505      158
   30.520      159
   30.535      180
   30.550      196
   30.565      196
   30.580      241
   30.595      256
   30.610      265
   30.625      268
   30.640      273
   30.655      299
   30.670      281
   30.685      282
   30.700      290
   30.715      268
   30.730      243
   30.745      244
   30.760      209
   30.775      228
   30.790      245
   30.805      232
   30.820      218
   30.835      215
   30.850      209
   30.865      198
   30.880      216
   30.895      190
   30.910      189
   30.925      211
   30.940      183
   30.955      194
   30.970      188
   30.985      213
   31.000      228
   31.015      220
   31.030      252
   31.045      237
   31.060      248
   31.075      241
   31.090      226
   31.105      199
   31.120      209
   31.135      219
   31.150      193
   31.165      196
   31.180      199
   31.195      222
   31.210      241
   31.225      247
   31.240      292
   31.255      272
   31.270      276
   31.285      243
   31.300      234
   31.315      200
   31.330      242
   31.345      257
   31.360      270
   31.375      261
   31.390      289
   31.405      284
   31.420      286
   31.435      269
   31.450      245
   31.465      289
   31.480      283
   31.495      299
   31.510      322
   31.525      354
   31.540      341
   31.555      385
   31.570      351
   31.585      303
   31.600      275
   31.615      274
   31.630      260
   31.645      248
   31.660      261
   31.675      260
   31.690      277
   31.705      259
   31.720      248
   31.735      269
   31.750      246
   31.765      231
   31.780      239
   31.795      226
   31.810      227
   31.825      208
   31.840      200
   31.855      181
   31.870      191
   31.885      171
   31.900      162
   31.915      174
   31.930      180
   31.945      168
   31.960      173
   31.975      176
   31.990      176
   32.005      188
   32.020      182
   32.035      178
   32.050      196
   32.065      177
   32.080      168
   32.095      162
   32.110      163
   32.125      154
   32.140      160
   32.155      146
   32.170      148
   32.185      152
   32.200      152
   32.215      147
   32.230      149
   32.245      162
   32.260      162
   32.275      164
   32.290      174
   32.305      170
   32.320      167
   32.335      182
   32.350      151
   32.365      147
   32.380      167
   32.395      152
   32.410      157
   32.425      174
   32.440      154
   32.455      157
   32.470      188
   32.485      184
   32.500      177
   32.515      200
   32.530      201
   32.545      227
   32.560      261
   32.575      296
   32.590      334
   32.605      360
   32.620      354
   32.635      364
   32.650      340
   32.665      330
   32.680      308
   32.695      265
   32.710      274
   32.725      206
   32.740      189
   32.755      199
   32.770      200
   32.785      186
   32.800      192
   32.815      194
   32.830      211
   32.845      213
   32.860      207
   32.875      172
   32.890      186
   32.905      178
   32.920      194
   32.935      202
   32.950      189
   32.965      191
   32.980      211
   32.995      226
   33.010      223
   33.025      236
   33.040      240
   33.055      240
   33.070      253
   33.085      266
   33.100      263
   33.115      328
   33.130      355
   33.145      370
   33.160      333
   33.175      318
   33.190      304
   33.205      262
   33.220      272
   33.235      265
   33.250      247
   33.265      256
   33.280      230
   33.295      219
   33.310      192
   33.325      206
   33.340      214
   33.355      211
   33.370      207
   33.385      219
   33.400      233
   33.415      257
   33.430      253
   33.445      298
   33.460      366
   33.475      357
   33.490      286
   33.505      268
   33.520      238
   33.535      243
   33.550      232
   33.565      245
   33.580      235
   33.595      255
   33.610      265
   33.625      250
   33.640      249
   33.655      245
   33.670      261
   33.685      228
   33.700      249
   33.715      213
   33.730      213
   33.745      211
   33.760      198
   33.775      185
   33.790      190
   33.805      177
   33.820      173
   33.835      206
   33.850      184
   33.865      160
   33.880      150
   33.895      166
   33.910      160
   33.925      172
   33.940      142
   33.955      169
   33.970      174
   33.985      152
   34.000      166
   34.015      183
   34.030      180
   34.045      169
   34.060      194
   34.075      207
   34.090      213
   34.105      226
   34.120      242
   34.135      229
   34.150      220
   34.165      217
   34.180      248
   34.195      232
   34.210      221
   34.225      197
   34.240      173
   34.255      163
   34.270      177
   34.285      173
   34.300      168
   34.315      172
   34.330      197
   34.345      192
   34.360      219
   34.375      227
   34.390      246
   34.405      220
   34.420      221
   34.435      197
   34.450      192
   34.465      202
   34.480      183
   34.495      200
   34.510      201
   34.525      180
   34.540      202
   34.555      201
   34.570      229
   34.585      220
   34.600      192
   34.615      173
   34.630      176
   34.645      194
   34.660      187
   34.675      202
   34.690      227
   34.705      221
   34.720      228
   34.735      249
   34.750      225
   34.765      222
   34.780      240
   34.795      249
   34.810      248
   34.825      267
   34.840      253
   34.855      243
   34.870      243
   34.885      260
   34.900      276
   34.915      281
   34.930      275
   34.945      302
   34.960      304
   34.975      324
   34.990      321
   35.005      332
   35.020      370
   35.035      365
   35.050      397
   35.065      401
   35.080      387
   35.095      366
   35.110      352
   35.125      358
   35.140      360
   35.155      348
   35.170      361
   35.185      370
   35.200      413
   35.215      410
   35.230      373
   35.245      397
   35.260      373
   35.275      356
   35.290      321
   35.305      297
   35.320      293
   35.335      264
   35.350      226
   35.365      218
   35.380      221
   35.395      181
   35.410      166
   35.425      174
   35.440      170
   35.455      181
   35.470      155
   35.485      157
   35.500      158
   35.515      161
   35.530      161
   35.545      160
   35.560      180
   35.575      160
   35.590      161
   35.605      150
   35.620      188
   35.635      180
   35.650      170
   35.665      189
   35.680      177
   35.695      166
   35.710      185
   35.725      181
   35.740      194
   35.755      194
   35.770      184
   35.785      173
   35.800      180
   35.815      178
   35.830      177
   35.845      198
   35.860      228
   35.875      223
   35.890      232
   35.905      242
   35.920      244
   35.935      226
   35.950      212
   35.965      168
   35.980      170
   35.995      161
   36.010      164
   36.025      181
   36.040      168
   36.055      167
   36.070      151
   36.085      138
   36.100      151
   36.115      163
   36.130      170
   36.145      168
   36.160      185
   36.175      173
   36.190      171
   36.205      156
   36.220      166
   36.235      149
   36.250      133
   36.265      148
   36.280      176
   36.295      160
   36.310      184
   36.325      161
   36.340      195
   36.355      199
   36.370      198
   36.385      201
   36.400      200
   36.415      222
   36.430      188
   36.445      202
   36.460      169
   36.475      166
   36.490      145
   36.505      165
   36.520      158
   36.535      161
   36.550      182
   36.565      156
   36.580      162
   36.595      165
   36.610      175
   36.625      175
   36.640      189
   36.655      170
   36.670      170
   36.685      178
   36.700      202
   36.715      197
   36.730      197
   36.745      200
   36.760      172
   36.775      167
   36.790      169
   36.805      194
   36.820      189
   36.835      188
   36.850      186
   36.865      189
   36.880      191
   36.895      218
   36.910      213
   36.925      192
   36.940      165
   36.955      178
   36.970      163
   36.985      144
   37.000      135
   37.015      124
   37.030      139
   37.045      130
   37.060      148
   37.075      151
   37.090      133
   37.105      141
   37.120      142
   37.135      135
   37.150      132
   37.165      133
   37.180      134
   37.195      150
   37.210      141
   37.225      133
   37.240      147
   37.255      154
   37.270      159
   37.285      144
   37.300      145
   37.315      188
   37.330      154
   37.345      161
   37.360      173
   37.375      162
   37.390      161
   37.405      153
   37.420      182
   37.435      170
   37.450      171
   37.465      185
   37.480      176
   37.495      172
   37.510      184
   37.525      157
   37.540      167
   37.555      186
   37.570      184
   37.585      183
   37.600      223
   37.615      233
   37.630      217
   37.645      187
   37.660      182
   37.675      171
   37.690      164
   37.705      157
   37.720      145
   37.735      145
   37.750      140
   37.765      138
   37.780      142
   37.795      170
   37.810      170
   37.825      162
   37.840      169
   37.855      149
   37.870      147
   37.885      158
   37.900      165
   37.915      166
   37.930      165
   37.945      180
   37.960      194
   37.975      239
   37.990      254
   38.005      252
   38.020      231
   38.035      205
   38.050      186
   38.065      194
   38.080      182
   38.095      189
   38.110      180
   38.125      180
   38.140      172
   38.155      168
   38.170      178
   38.185      191
   38.200      184
   38.215      188
   38.230      200
   38.245      189
   38.260      181
   38.275      172
   38.290      168
   38.305      169
   38.320      169
   38.335      182
   38.350      178
   38.365      162
   38.380      147
   38.395      166
   38.410      168
   38.425      180
   38.440      187
   38.455      196
   38.470      180
   38.485      170
   38.500      164
   38.515      172
   38.530      197
   38.545      171
   38.560      190
   38.575      157
   38.590      174
   38.605      179
   38.620      180
   38.635      189
   38.650      187
   38.665      173
   38.680      160
   38.695      155
   38.710      164
   38.725      183
   38.740      144
   38.755      139
   38.770      136
   38.785      135
   38.800      150
   38.815      144
   38.830      155
   38.845      156
   38.860      159
   38.875      144
   38.890      137
   38.905      142
   38.920      170
   38.935      138
   38.950      140
   38.965      144
   38.980      124
   38.995      130
   39.010      138
   39.025      138
   39.040      135
   39.055      149
   39.070      152
   39.085      146
   39.100      138
   39.115      134
   39.130      136
   39.145      132
   39.160      129
   39.175      130
   39.190      134
   39.205      117
   39.220      138
   39.235      150
   39.250      152
   39.265      148
   39.280      146
   39.295      178
   39.310      166
   39.325      154
   39.340      161
   39.355      167
   39.370      176
   39.385      170
   39.400      192
   39.415      187
   39.430      162
   39.445      167
   39.460      181
   39.475      173
   39.490      160
   39.505      174
   39.520      153
   39.535      149
   39.550      159
   39.565      147
   39.580      124
   39.595      130
   39.610      133
   39.625      148
   39.640      129
   39.655      128
   39.670      134
   39.685      129
   39.700      148
   39.715      148
   39.730      168
   39.745      143
   39.760      130
   39.775      148
   39.790      141
   39.805      143
   39.820      136
   39.835      153
   39.850      151
   39.865      152
   39.880      137
   39.895      142
   39.910      146
   39.925      159
   39.940      145
   39.955      175
   39.970      162
   39.985      178
   40.000      166
   40.015      197
   40.030      194
   40.045      233
   40.060      222
   40.075      223
   40.090      197
   40.105      205
   40.120      182
   40.135      176
   40.150      175
   40.165      172
   40.180      182
   40.195      187
   40.210      175
   40.225      162
   40.240      164
   40.255      179
   40.270      184
   40.285      208
   40.300      183
   40.315      180
   40.330      194
   40.345      190
   40.360      211
   40.375      193
   40.390      188
   40.405      202
   40.420      199
   40.435      199
   40.450      182
   40.465      179
   40.480      171
   40.495      158
   40.510      159
   40.525      151
   40.540      152
   40.555      135
   40.570      145
   40.585      139
   40.600      126
   40.615      135
   40.630      144
   40.645      153
   40.660      150
   40.675      172
   40.690      151
   40.705      138
   40.720      137
   40.735      142
   40.750      127
   40.765      141
   40.780      138
   40.795      135
   40.810      110
   40.825      122
   40.840      129
   40.855      129
   40.870      122
   40.885      123
   40.900      115
   40.915      123
   40.930      127
   40.945      125
   40.960      125
   40.975      134
   40.990      121
   41.005      125
   41.020      148
   41.035      141
   41.050      120
   41.065      145
   41.080      148
   41.095      162
   41.110      140
   41.125      145
   41.140      132
   41.155      140
   41.170      130
   41.185      128
   41.200      135
   41.215      150
   41.230      148
   41.245      155
   41.260      160
   41.275      161
   41.290      145
   41.305      154
   41.320      157
   41.335      164
   41.350      161
   41.365      163
   41.380      159
   41.395      150
   41.410      142
   41.425      153
   41.440      146
   41.455      141
   41.470      142
   41.485      151
   41.500      159
   41.515      148
   41.530      140
   41.545      156
   41.560      172
   41.575      167
   41.590      145
   41.605      149
   41.620      148
   41.635      154
   41.650      146
   41.665      154
   41.680      177
   41.695      166
   41.710      156
   41.725      142
   41.740      167
   41.755      147
   41.770      158
   41.785      163
   41.800      163
   41.815      160
   41.830      143
   41.845      150
   41.860      162
   41.875      141
   41.890      170
   41.905      165
   41.920      154
   41.935      154
   41.950      150
   41.965      153
   41.980      157
   41.995      139
   42.010      169
   42.025      165
   42.040      159
   42.055      151
   42.070      131
   42.085      153
   42.100      137
   42.115      140
   42.130      144
   42.145      125
   42.160      136
   42.175      135
   42.190      125
   42.205      134
   42.220      133
   42.235      142
   42.250      130
   42.265      126
   42.280      136
   42.295      144
   42.310      134
   42.325      153
   42.340      147
   42.355      141
   42.370      162
   42.385      148
   42.400      143
   42.415      137
   42.430      134
   42.445      145
   42.460      149
   42.475      127
   42.490      145
   42.505      136
   42.520      145
   42.535      143
   42.550      147
   42.565      150
   42.580      164
   42.595      131
   42.610      134
   42.625      170
   42.640      165
   42.655      155
   42.670      156
   42.685      171
   42.700      151
   42.715      168
   42.730      145
   42.745      135
   42.760      161
   42.775      157
   42.790      150
   42.805      145
   42.820      144
   42.835      142
   42.850      149
   42.865      124
   42.880      146
   42.895      138
   42.910      130
   42.925      115
   42.940      129
   42.955      158
   42.970      148
   42.985      126
   43.000      134
   43.015      123
   43.030      114
   43.045      110
   43.060      135
   43.075      142
   43.090      131
   43.105      133
   43.120      126
   43.135      123
   43.150      130
   43.165      139
   43.180      126
   43.195      148
   43.210      149
   43.225      140
   43.240      134
   43.255      122
   43.270      141
   43.285      149
   43.300      163
   43.315      151
   43.330      149
   43.345      133
   43.360      142
   43.375      130
   43.390      128
   43.405      137
   43.420      128
   43.435      151
   43.450      131
   43.465      119
   43.480      123
   43.495      133
   43.510      148
   43.525      157
   43.540      151
   43.555      141
   43.570      147
   43.585      155
   43.600      155
   43.615      158
   43.630      141
   43.645      134
   43.660      163
   43.675      177
   43.690      148
   43.705      152
   43.720      170
   43.735      168
   43.750      152
   43.765      169
   43.780      166
   43.795      138
   43.810      157
   43.825      159
   43.840      143
   43.855      148
   43.870      145
   43.885      155
   43.900      159
   43.915      134
   43.930      160
   43.945      148
   43.960      156
   43.975      160
   43.990      166
   44.005      182
   44.020      172
   44.035      141
   44.050      164
   44.065      167
   44.080      162
   44.095      152
   44.110      140
   44.125      151
   44.140      150
   44.155      154
   44.170      148
   44.185      150
   44.200      164
   44.215      166
   44.230      182
   44.245      179
   44.260      199
   44.275      197
   44.290      175
   44.305      158
   44.320      163
   44.335      139
   44.350      141
   44.365      164
   44.380      138
   44.395      148
   44.410      149
   44.425      147
   44.440      173
   44.455      168
   44.470      169
   44.485      180
   44.500      166
   44.515      183
   44.530      202
   44.545      191
   44.560      196
   44.575      195
   44.590      198
   44.605      200
   44.620      202
   44.635      190
   44.650      185
   44.665      206
   44.680      182
   44.695      166
   44.710      169
   44.725      183
   44.740      159
   44.755      149
   44.770      189
   44.785      193
   44.800      157
   44.815      176
   44.830      186
   44.845      147
   44.860      143
   44.875      114
   44.890      137
   44.905      127
   44.920      133
   44.935      149
   44.950      126
   44.965      147
   44.980      153
   44.995      159
   45.010      167
   45.025      155
   45.040      167
   45.055      175
   45.070      149
   45.085      170
   45.100      163
   45.115      146
   45.130      152
   45.145      136
   45.160      141
   45.175      121
   45.190      130
   45.205      135
   45.220      140
   45.235      139
   45.250      122
   45.265      125
   45.280      116
   45.295      138
   45.310      124
   45.325      130
   45.340      126
   45.355      123
   45.370      120
   45.385      117
   45.400      116
   45.415      129
   45.430      132
   45.445      137
   45.460      146
   45.475      120
   45.490      153
   45.505      149
   45.520      138
   45.535      140
   45.550      139
   45.565      146
   45.580      143
   45.595      146
   45.610      148
   45.625      152
   45.640      158
   45.655      155
   45.670      163
   45.685      169
   45.700      181
   45.715      165
   45.730      161
   45.745      152
   45.760      163
   45.775      151
   45.790      143
   45.805      145
   45.820      124
   45.835      113
   45.850      131
   45.865      141
   45.880      133
   45.895      137
   45.910      129
   45.925      141
   45.940      140
   45.955      141
   45.970      152
   45.985      133
