    4.000      220
    4.015      189
    4.030      183
    4.045      186
    4.060      200
    4.075      221
    4.090      201
    4.105      210
    4.120      208
    4.135      209
    4.150      181
    4.165      183
    4.180      187
    4.195      198
    4.210      183
    4.225      199
    4.240      175
    4.255      194
    4.270      189
    4.285      187
    4.300      204
    4.315      194
    4.330      202
    4.345      194
    4.360      183
    4.375      197
    4.390      196
    4.405      198
    4.420      208
    4.435      201
    4.450      187
    4.465      213
    4.480      196
    4.495      169
    4.510      190
    4.525      211
    4.540      180
    4.555      191
    4.570      195
    4.585      190
    4.600      188
    4.615      181
    4.630      171
    4.645      192
    4.660      199
    4.675      205
    4.690      193
    4.705      183
    4.720      184
    4.735      202
    4.750      186
    4.765      199
    4.780      197
    4.795      190
    4.810      189
    4.825      186
    4.840      187
    4.855      195
    4.870      191
    4.885      180
    4.900      203
    4.915      199
    4.930      173
    4.945      185
    4.960      176
    4.975      188
    4.990      187
    5.005      182
    5.020      199
    5.035      188
    5.050      179
    5.065      174
    5.080      170
    5.095      182
    5.110      171
    5.125      187
    5.140      181
    5.155      178
    5.170      194
    5.185      178
    5.200      172
    5.215      182
    5.230      190
    5.245      183
    5.260      177
    5.275      204
    5.290      183
    5.305      191
    5.320      184
    5.335      201
    5.350      186
    5.365      173
    5.380      172
    5.395      160
    5.410      172
    5.425      186
    5.440      174
    5.455      170
    5.470      176
    5.485      178
    5.500      180
    5.515      157
    5.530      159
    5.545      175
    5.560      182
    5.575      183
    5.590      202
    5.605      186
    5.620      185
    5.635      184
    5.650      173
    5.665      175
    5.680      193
    5.695      154
    5.710      190
    5.725      183
    5.740      187
    5.755      187
    5.770      190
    5.785      179
    5.800      167
    5.815      184
    5.830      192
    5.845      187
    5.860      177
    5.875      177
    5.890      205
    5.905      197
    5.920      183
    5.935      190
    5.950      167
    5.965      174
    5.980      187
    5.995      173
    6.010      192
    6.025      215
    6.040      180
    6.055      208
    6.070      207
    6.085      182
    6.100      180
    6.115      187
    6.130      187
    6.145      181
    6.160      201
    6.175      197
    6.190      194
    6.205      189
    6.220      194
    6.235      203
    6.250      209
    6.265      205
    6.280      211
    6.295      194
    6.310      222
    6.325      252
    6.340      237
    6.355      242
    6.370      259
    6.385      266
    6.400      258
    6.415      277
    6.430      265
    6.445      281
    6.460      310
    6.475      323
    6.490      378
    6.505      417
    6.520      445
    6.535      445
    6.550      450
    6.565      403
    6.580      320
    6.595      254
    6.610      202
    6.625      185
    6.640      192
    6.655      162
    6.670      167
    6.685      176
    6.700      177
    6.715      162
    6.730      177
    6.745      180
    6.760      188
    6.775      176
    6.790      179
    6.805      181
    6.820      181
    6.835      166
    6.850      180
    6.865      180
    6.880      178
    6.895      194
    6.910      199
    6.925      225
    6.940      196
    6.955      199
    6.970      226
    6.985      226
    7.000      209
    7.015      224
    7.030      240
    7.045      252
    7.060      268
    7.075      302
    7.090      250
    7.105      208
    7.120      178
    7.135      186
    7.150      183
    7.165      187
    7.180      169
    7.195      175
    7.210      153
    7.225      156
    7.240      193
    7.255      179
    7.270      184
    7.285      180
    7.300      165
    7.315      179
    7.330      178
    7.345      188
    7.360      217
    7.375      173
    7.390      175
    7.405      164
    7.420      176
    7.435      181
    7.450      198
    7.465      200
    7.480      198
    7.495      205
    7.510      195
    7.525      235
    7.540      234
    7.555      229
    7.570      209
    7.585      197
    7.600      169
    7.615      171
    7.630      166
    7.645      169
    7.660      174
    7.675      197
    7.690      158
    7.705      159
    7.720      167
    7.735      185
    7.750      164
    7.765      164
    7.780      178
    7.795      168
    7.810      179
    7.825      180
    7.840      178
    7.855      159
    7.870      166
    7.885      182
    7.900      177
    7.915      172
    7.930      174
    7.945      178
    7.960      185
    7.975      188
    7.990      195
    8.005      171
    8.020      166
    8.035      168
    8.050      170
    8.065      182
    8.080      173
    8.095      174
    8.110      183
    8.125      185
    8.140      167
    8.155      188
    8.170      172
    8.185      166
    8.200      169
    8.215      190
    8.230      177
    8.245      190
    8.260      196
    8.275      181
    8.290      189
    8.305      189
    8.320      177
    8.335      184
    8.350      190
    8.365      175
    8.380      180
    8.395      197
    8.410      172
    8.425      181
    8.440      188
    8.455      183
    8.470      195
    8.485      170
    8.500      178
    8.515      172
    8.530      175
    8.545      183
    8.560      197
    8.575      194
    8.590      194
    8.605      194
    8.620      194
    8.635      192
    8.650      196
    8.665      189
    8.680      188
    8.695      179
    8.710      193
    8.725      205
    8.740      199
    8.755      205
    8.770      188
    8.785      182
    8.800      189
    8.815      197
    8.830      198
    8.845      187
    8.860      184
    8.875      204
    8.890      206
    8.905      175
    8.920      180
    8.935      184
    8.950      207
    8.965      182
    8.980      198
    8.995      203
    9.010      202
    9.025      200
    9.040      186
    9.055      193
    9.070      190
    9.085      180
    9.100      183
    9.115      205
    9.130      207
    9.145      192
    9.160      178
    9.175      179
    9.190      170
    9.205      204
    9.220      197
    9.235      212
    9.250      194
    9.265      199
    9.280      197
    9.295      194
    9.310      187
    9.325      178
    9.340      183
    9.355      220
    9.370      199
    9.385      192
    9.400      197
    9.415      206
    9.430      204
    9.445      194
    9.460      204
    9.475      211
    9.490      225
    9.505      209
    9.520      197
    9.535      201
    9.550      214
    9.565      196
    9.580      205
    9.595      212
    9.610      210
    9.625      236
    9.640      227
    9.655      219
    9.670      218
    9.685      212
    9.700      204
    9.715      196
    9.730      193
    9.745      204
    9.760      200
    9.775      226
    9.790      214
    9.805      192
    9.820      202
    9.835      209
    9.850      225
    9.865      165
    9.880      195
    9.895      209
    9.910      208
    9.925      199
    9.940      188
    9.955      193
    9.970      179
    9.985      199
   10.000      201
   10.015      207
   10.030      186
   10.045      212
   10.060      220
   10.075      220
   10.090      217
   10.105      217
   10.120      200
   10.135      180
   10.150      210
   10.165      218
   10.180      234
   10.195      222
   10.210      247
   10.225      254
   10.240      277
   10.255      285
   10.270      284
   10.285      290
   10.300      308
   10.315      375
   10.330      331
   10.345      265
   10.360      241
   10.375      217
   10.390      200
   10.405      200
   10.420      207
   10.435      202
   10.450      200
   10.465      200
   10.480      203
   10.495      192
   10.510      204
   10.525      206
   10.540      217
   10.555      203
   10.570      186
   10.585      202
   10.600      218
   10.615      228
   10.630      224
   10.645      199
   10.660      239
   10.675      257
   10.690      254
   10.705      251
   10.720      237
   10.735      205
   10.750      186
   10.765      192
   10.780      183
   10.795      190
   10.810      204
   10.825      194
   10.840      213
   10.855      215
   10.870      202
   10.885      212
   10.900      211
   10.915      226
   10.930      240
   10.945      239
   10.960      250
   10.975      260
   10.990      265
   11.005      282
   11.020      297
   11.035      339
   11.050      377
   11.065      364
   11.080      323
   11.095      267
   11.110      225
   11.125      218
   11.140      217
   11.155      221
   11.170      253
   11.185      225
   11.200      224
   11.215      237
   11.230      238
   11.245      262
   11.260      269
   11.275      248
   11.290      231
   11.305      215
   11.320      192
   11.335      201
   11.350      202
   11.365      199
   11.380      187
   11.395      196
   11.410      199
   11.425      195
   11.440      179
   11.455      207
   11.470      200
   11.485      183
   11.500      198
   11.515      188
   11.530      205
   11.545      200
   11.560      203
   11.575      230
   11.590      226
   11.605      233
   11.620      243
   11.635      259
   11.650      254
   11.665      290
   11.680      325
   11.695      342
   11.710      310
   11.725      263
   11.740      212
   11.755      216
   11.770      235
   11.785      244
   11.800      243
   11.815      235
   11.830      258
   11.845      241
   11.860      253
   11.875      259
   11.890      265
   11.905      257
   11.920      281
   11.935      213
   11.950      209
   11.965      217
   11.980      226
   11.995      192
   12.010      218
   12.025      205
   12.040      190
   12.055      189
   12.070      189
   12.085      193
   12.100      188
   12.115      203
   12.130      218
   12.145      215
   12.160      218
   12.175      219
   12.190      223
   12.205      243
   12.220      225
   12.235      233
   12.250      232
   12.265      267
   12.280      262
   12.295      273
   12.310      300
   12.325      358
   12.340      416
   12.355      474
   12.370      519
   12.385      620
   12.400      797
   12.415      877
   12.430      986
   12.445     1172
   12.460     1457
   12.475     1819
   12.490     2036
   12.505     1820
   12.520     1663
   12.535     1471
   12.550     1518
   12.565     1521
   12.580     1330
   12.595      956
   12.610      622
   12.625      412
   12.640      329
   12.655      294
   12.670      268
   12.685      261
   12.700      252
   12.715      265
   12.730      308
   12.745      279
   12.760      273
   12.775      319
   12.790      324
   12.805      359
   12.820      403
   12.835      512
   12.850      613
   12.865      645
   12.880      557
   12.895      522
   12.910      489
   12.925      496
   12.940      581
   12.955      664
   12.970      866
   12.985     1009
   13.000     1257
   13.015     1507
   13.030     1935
   13.045     2341
   13.060     2325
   13.075     2089
   13.090     1842
   13.105     1858
   13.120     2179
   13.135     2884
   13.150     3536
   13.165     3379
   13.180     2255
   13.195     1230
   13.210      677
   13.225      483
   13.240      428
   13.255      370
   13.270      396
   13.285      440
   13.300      407
   13.315      520
   13.330      560
   13.345      623
   13.360      741
   13.375      851
   13.390      875
   13.405      932
   13.420      901
   13.435      771
   13.450      550
   13.465      390
   13.480      316
   13.495      287
   13.510      286
   13.525      258
   13.540      279
   13.555      292
   13.570      282
   13.585      313
   13.600      322
   13.615      355
   13.630      402
   13.645      428
   13.660      447
   13.675      407
   13.690      333
   13.705      279
   13.720      242
   13.735      254
   13.750      230
   13.765      223
   13.780      224
   13.795      231
   13.810      212
   13.825      211
   13.840      212
   13.855      226
   13.870      233
   13.885      218
   13.900      224
   13.915      217
   13.930      217
   13.945      225
   13.960      245
   13.975      243
   13.990      269
   14.005      280
   14.020      291
   14.035      302
   14.050      297
   14.065      348
   14.080      369
   14.095      429
   14.110      491
   14.125      524
   14.140      483
   14.155      447
   14.170      436
   14.185      473
   14.200      494
   14.215      451
   14.230      447
   14.245      459
   14.260      505
   14.275      558
   14.290      629
   14.305      690
   14.320      839
   14.335      902
   14.350      693
   14.365      481
   14.380      373
   14.395      285
   14.410      279
   14.425      245
   14.440      225
   14.455      210
   14.470      226
   14.485      246
   14.500      235
   14.515      237
   14.530      228
   14.545      234
   14.560      243
   14.575      222
   14.590      242
   14.605      255
   14.620      241
   14.635      247
   14.650      232
   14.665      238
   14.680      271
   14.695      296
   14.710      319
   14.725      347
   14.740      389
   14.755      411
   14.770      509
   14.785      595
   14.800      688
   14.815      818
   14.830      937
   14.845     1008
   14.860     1152
   14.875     1296
   14.890     1631
   14.905     1699
   14.920     1373
   14.935      917
   14.950      585
   14.965      408
   14.980      375
   14.995      356
   15.010      359
   15.025      357
   15.040      375
   15.055      413
   15.070      469
   15.085      484
   15.100      551
   15.115      662
   15.130      718
   15.145      632
   15.160      514
   15.175      482
   15.190      446
   15.205      402
   15.220      352
   15.235      314
   15.250      317
   15.265      338
   15.280      323
   15.295      349
   15.310      363
   15.325      407
   15.340      448
   15.355      511
   15.370      579
   15.385      631
   15.400      632
   15.415      542
   15.430      397
   15.445      312
   15.460      342
   15.475      317
   15.490      338
   15.505      363
   15.520      417
   15.535      409
   15.550      476
   15.565      559
   15.580      640
   15.595      632
   15.610      567
   15.625      440
   15.640      374
   15.655      338
   15.670      304
   15.685      274
   15.700      314
   15.715      334
   15.730      318
   15.745      282
   15.760      304
   15.775      307
   15.790      301
   15.805      327
   15.820      344
   15.835      410
   15.850      467
   15.865      504
   15.880      585
   15.895      679
   15.910      691
   15.925      659
   15.940      751
   15.955      715
   15.970      561
   15.985      459
   16.000      405
   16.015      373
   16.030      376
   16.045      411
   16.060      410
   16.075      527
   16.090      594
   16.105      564
   16.120      527
   16.135      531
   16.150      564
   16.165      613
   16.180      700
   16.195      857
   16.210     1069
   16.225     1141
   16.240     1132
   16.255      912
   16.270      743
   16.285      723
   16.300      762
   16.315      866
   16.330      932
   16.345      851
   16.360      769
   16.375      702
   16.390      649
   16.405      681
   16.420      734
   16.435      739
   16.450      794
   16.465      910
   16.480     1167
   16.495     1284
   16.510     1125
   16.525      979
   16.540      896
   16.555      907
   16.570      855
   16.585      822
   16.600      724
   16.615      496
   16.630      395
   16.645      380
   16.660      363
   16.675      361
   16.690      369
   16.705      361
   16.720      368
   16.735      410
   16.750      463
   16.765      494
   16.780      584
   16.795      596
   16.810      604
   16.825      510
   16.840      397
   16.855      339
   16.870      306
   16.885      330
   16.900      330
   16.915      340
   16.930      357
   16.945      369
   16.960      406
   16.975      459
   16.990      466
   17.005      483
   17.020      428
   17.035      375
   17.050      349
   17.065      327
   17.080      334
   17.095      385
   17.110      360
   17.125      343
   17.140      323
   17.155      316
   17.170      317
   17.185      337
   17.200      375
   17.215      398
   17.230      472
   17.245      537
   17.260      571
   17.275      562
   17.290      490
   17.305      367
   17.320      280
   17.335      257
   17.350      279
   17.365      274
   17.380      302
   17.395      291
   17.410      326
   17.425      329
   17.440      324
   17.455      338
   17.470      344
   17.485      340
   17.500      353
   17.515      379
   17.530      364
   17.545      379
   17.560      345
   17.575      314
   17.590      272
   17.605      271
   17.620      265
   17.635      238
   17.650      238
   17.665      250
   17.680      237
   17.695      263
   17.710      225
   17.725      215
   17.740      199
   17.755      211
   17.770      211
   17.785      243
   17.800      206
   17.815      235
   17.830      232
   17.845      210
   17.860      245
   17.875      233
   17.890      212
   17.905      224
   17.920      258
   17.935      261
   17.950      281
   17.965      298
   17.980      319
   17.995      341
   18.010      355
   18.025      375
   18.040      446
   18.055      501
   18.070      428
   18.085      340
   18.100      298
   18.115      241
   18.130      236
   18.145      262
   18.160      238
   18.175      244
   18.190      242
   18.205      253
   18.220      265
   18.235      282
   18.250      280
   18.265      303
   18.280      355
   18.295      380
   18.310      441
   18.325      524
   18.340      556
   18.355      522
   18.370      526
   18.385      531
   18.400      612
   18.415      663
   18.430      627
   18.445      596
   18.460      570
   18.475      551
   18.490      577
   18.505      547
   18.520      474
   18.535      436
   18.550      440
   18.565      423
   18.580      447
   18.595      446
   18.610      495
   18.625      579
   18.640      644
   18.655      585
   18.670      460
   18.685      399
   18.700      353
   18.715      347
   18.730      366
   18.745      328
   18.760      303
   18.775      247
   18.790      259
   18.805      247
   18.820      234
   18.835      213
   18.850      213
   18.865      201
   18.880      218
   18.895      210
   18.910      216
   18.925      225
   18.940      230
   18.955      229
   18.970      224
   18.985      219
   19.000      217
   19.015      197
   19.030      196
   19.045      213
   19.060      209
   19.075      192
   19.090      226
   19.105      233
   19.120      225
   19.135      222
   19.150      184
   19.165      194
   19.180      206
   19.195      211
   19.210      231
   19.225      209
   19.240      232
   19.255      253
   19.270      254
   19.285      270
   19.300      331
   19.315      353
   19.330      353
   19.345      412
   19.360      395
   19.375      443
   19.390      387
   19.405      362
   19.420      306
   19.435      261
   19.450      262
   19.465      264
   19.480      258
   19.495      293
   19.510      312
   19.525      349
   19.540      389
   19.555      446
   19.570      485
   19.585      580
   19.600      713
   19.615      859
   19.630      992
   19.645     1113
   19.660      959
   19.675      804
   19.690      693
   19.705      652
   19.720      709
   19.735      807
   19.750      796
   19.765      752
   19.780      671
   19.795      572
   19.810      478
   19.825      410
   19.840      337
   19.855      324
   19.870      294
   19.885      296
   19.900      302
   19.915      322
   19.930      345
   19.945      351
   19.960      314
   19.975      295
   19.990      271
   20.005      266
   20.020      230
   20.035      226
   20.050      216
   20.065      213
   20.080      210
   20.095      201
   20.110      218
   20.125      203
   20.140      202
   20.155      200
   20.170      203
   20.185      211
   20.200      216
   20.215      209
   20.230      205
   20.245      226
   20.260      222
   20.275      217
   20.290      237
   20.305      245
   20.320      217
   20.335      237
   20.350      217
   20.365      208
   20.380      227
   20.395      262
   20.410      275
   20.425      269
   20.440      279
   20.455      340
   20.470      391
   20.485      436
   20.500      430
   20.515      406
   20.530      360
   20.545      338
   20.560      368
   20.575      368
   20.590      416
   20.605      375
   20.620      347
   20.635      287
   20.650      270
   20.665      275
   20.680      248
   20.695      246
   20.710      231
   20.725      209
   20.740      244
   20.755      255
   20.770      246
   20.785      244
   20.800      241
   20.815      235
   20.830      218
   20.845      236
   20.860      263
   20.875      246
   20.890      239
   20.905      258
   20.920      232
   20.935      266
   20.950      281
   20.965      308
   20.980      291
   20.995      256
   21.010      220
   21.025      201
   21.040      216
   21.055      227
   21.070      204
   21.085      185
   21.100      196
   21.115      203
   21.130      215
   21.145      223
   21.160      231
   21.175      237
   21.190      267
   21.205      259
   21.220      311
   21.235      330
   21.250      373
   21.265      397
   21.280      491
   21.295      583
   21.310      668
   21.325      693
   21.340      583
   21.355      548
   21.370      498
   21.385      476
   21.400      549
   21.415      583
   21.430      699
   21.445      887
   21.460     1144
   21.475     1426
   21.490     1712
   21.505     1614
   21.520     1265
   21.535      916
   21.550      642
   21.565      569
   21.580      508
   21.595      457
   21.610      428
   21.625      365
   21.640      323
   21.655      335
   21.670      305
   21.685      272
   21.700      248
   21.715      232
   21.730      238
   21.745      226
   21.760      207
   21.775      201
   21.790      195
   21.805      206
   21.820      191
   21.835      201
   21.850      203
   21.865      184
   21.880      212
   21.895      194
   21.910      222
   21.925      222
   21.940      240
   21.955      220
   21.970      232
   21.985      291
   22.000      302
   22.015      292
   22.030      290
   22.045      327
   22.060      312
   22.075      336
   22.090      333
   22.105      335
   22.120      295
   22.135      260
   22.150      253
   22.165      232
   22.180      234
   22.195      249
   22.210      277
   22.225      309
   22.240      294
   22.255      341
   22.270      331
   22.285      360
   22.300      397
   22.315      463
   22.330      476
   22.345      470
   22.360      420
   22.375      377
   22.390      399
   22.405      379
   22.420      405
   22.435      450
   22.450      488
   22.465      518
   22.480      589
   22.495      644
   22.510      677
   22.525      633
   22.540      589
   22.555      557
   22.570      494
   22.585      430
   22.600      361
   22.615      318
   22.630      284
   22.645      297
   22.660      306
   22.675      294
   22.690      323
   22.705      330
   22.720      349
   22.735      359
   22.750      455
   22.765      449
   22.780      396
   22.795      416
   22.810      389
   22.825      372
   22.840      375
   22.855      413
   22.870      409
   22.885      363
   22.900      321
   22.915      283
   22.930      261
   22.945      231
   22.960      243
   22.975      227
   22.990      205
   23.005      220
   23.020      219
   23.035      245
   23.050      291
   23.065      279
   23.080      253
   23.095      251
   23.110      216
   23.125      213
   23.140      202
   23.155      177
   23.170      177
   23.185      202
   23.200      195
   23.215      179
   23.230      171
   23.245      173
   23.260      183
   23.275      189
   23.290      178
   23.305      188
   23.320      183
   23.335      181
   23.350      213
   23.365      214
   23.380      185
   23.395      175
   23.410      177
   23.425      190
   23.440      197
   23.455      216
   23.470      197
   23.485      200
   23.500      206
   23.515      203
   23.530      201
   23.545      217
   23.560      198
   23.575      217
   23.590      223
   23.605      241
   23.620      238
   23.635      272
   23.650      288
   23.665      266
   23.680      255
   23.695      256
   23.710      204
   23.725      206
   23.740      205
   23.755      208
   23.770      203
   23.785      189
   23.800      206
   23.815      227
   23.830      228
   23.845      231
   23.860      281
   23.875      308
   23.890      349
   23.905      338
   23.920      357
   23.935      353
   23.950      314
   23.965      249
   23.980      250
   23.995      240
   24.010      256
   24.025      293
   24.040      278
   24.055      279
   24.070      308
   24.085      287
   24.100      303
   24.115      305
   24.130      269
   24.145      228
   24.160      222
   24.175      238
   24.190      240
   24.205      218
   24.220      201
   24.235      204
   24.250      220
   24.265      249
   24.280      231
   24.295      233
   24.310      224
   24.325      223
   24.340      212
   24.355      220
   24.370      227
   24.385      221
   24.400      217
   24.415      211
   24.430      215
   24.445      185
   24.460      188
   24.475      189
   24.490      181
   24.505      177
   24.520      177
   24.535      193
   24.550      220
   24.565      241
   24.580      233
   24.595      285
   24.610      310
   24.625      300
   24.640      312
   24.655      289
   24.670      279
   24.685      262
   24.700      259
   24.715      260
   24.730      264
   24.745      249
   24.760      241
   24.775      264
   24.790      283
   24.805      325
   24.820      322
   24.835      340
   24.850      329
   24.865      293
   24.880      254
   24.895      226
   24.910      205
   24.925      198
   24.940      220
   24.955      213
   24.970      240
   24.985      234
   25.000      269
   25.015      289
   25.030      314
   25.045      298
   25.060      299
   25.075      306
   25.090      280
   25.105      264
   25.120      263
   25.135      284
   25.150      296
   25.165      283
   25.180      273
   25.195      274
   25.210      288
   25.225      329
   25.240      357
   25.255      390
   25.270      434
   25.285      463
   25.300      476
   25.315      449
   25.330      395
   25.345      365
   25.360      289
   25.375      292
   25.390      245
   25.405      247
   25.420      247
   25.435      249
   25.450      235
   25.465      271
   25.480      260
   25.495      260
   25.510      309
   25.525      288
   25.540      280
   25.555      244
   25.570      229
   25.585      222
   25.600      226
   25.615      230
   25.630      234
   25.645      232
   25.660      229
   25.675      229
   25.690      238
   25.705      248
   25.720      235
   25.735      247
   25.750      259
   25.765      263
   25.780      267
   25.795      266
   25.810      271
   25.825      274
   25.840      250
   25.855      233
   25.870      220
   25.885      224
   25.900      204
   25.915      209
   25.930      196
   25.945      214
   25.960      234
   25.975      221
   25.990      213
   26.005      211
   26.020      193
   26.035      194
   26.050      202
   26.065      178
   26.080      174
   26.095      204
   26.110      196
   26.125      195
   26.140      184
   26.155      193
   26.170      206
   26.185      213
   26.200      213
   26.215      216
   26.230      225
   26.245      269
   26.260      278
   26.275      282
   26.290      300
   26.305      262
   26.320      237
   26.335      226
   26.350      215
   26.365      196
   26.380      199
   26.395      219
   26.410      247
   26.425      243
   26.440      254
   26.455      300
   26.470      343
   26.485      362
   26.500      383
   26.515      383
   26.530      336
   26.545      341
   26.560      371
   26.575      389
   26.590      372
   26.605      324
   26.620      306
   26.635      249
   26.650      251
   26.665      243
   26.680      257
   26.695      231
   26.710      256
   26.725      248
   26.740      232
   26.755      206
   26.770      233
   26.785      215
   26.800      216
   26.815      215
   26.830      238
   26.845      232
   26.860      234
   26.875      217
   26.890      192
   26.905      204
   26.920      202
   26.935      196
   26.950      212
   26.965      229
   26.980      233
   26.995      223
   27.010      236
   27.025      231
   27.040      238
   27.055      234
   27.070      240
   27.085      256
   27.100      298
   27.115      331
   27.130      365
   27.145      366
   27.160      367
   27.175      355
   27.190      354
   27.205      409
   27.220      405
   27.235      394
   27.250      401
   27.265      380
   27.280      358
   27.295      355
   27.310      308
   27.325      277
   27.340      248
   27.355      245
   27.370      228
   27.385      226
   27.400      213
   27.415      243
   27.430      246
   27.445      257
   27.460      272
   27.475      265
   27.490      267
   27.505      267
   27.520      281
   27.535      251
   27.550      237
   27.565      245
   27.580      217
   27.595      233
   27.610      225
   27.625      215
   27.640      245
   27.655      229
   27.670      261
   27.685      268
   27.700      265
   27.715      221
   27.730      236
   27.745      233
   27.760      234
   27.775      229
   27.790      237
   27.805      259
   27.820      269
   27.835      258
   27.850      279
   27.865      252
   27.880      247
   27.895      258
   27.910      240
   27.925      245
   27.940      242
   27.955      255
   27.970      231
   27.985      234
   28.000      227
   28.015      231
   28.030      226
   28.045      219
   28.060      223
   28.075      211
   28.090      197
   28.105      209
   28.120      207
   28.135      195
   28.150      203
   28.165      192
   28.180      198
   28.195      209
   28.210      216
   28.225      231
   28.240      248
   28.255      205
   28.270      238
   28.285      243
   28.300      234
   28.315      213
   28.330      219
   28.345      230
   28.360      259
   28.375      239
   28.390      254
   28.405      260
   28.420      260
   28.435      261
   28.450      259
   28.465      280
   28.480      253
   28.495      252
   28.510      278
   28.525      262
   28.540      273
   28.555      242
   28.570      248
   28.585      245
   28.600      232
   28.615      256
   28.630      242
   28.645      224
   28.660      206
   28.675      236
   28.690      216
   28.705      240
   28.720      220
   28.735      207
   28.750      223
   28.765      214
   28.780      209
   28.795      219
   28.810      215
   28.825      209
   28.840      223
   28.855      228
   28.870      192
   28.885      219
   28.900      221
   28.915      218
   28.930      222
   28.945      213
   28.960      206
   28.975      182
   28.990      208
   29.005      209
   29.020      221
   29.035      221
   29.050      205
   29.065      208
   29.080      218
   29.095      237
   29.110      232
   29.125      259
   29.140      254
   29.155      244
   29.170      266
   29.185      275
   29.200      287
   29.215      281
   29.230      303
   29.245      326
   29.260      327
   29.275      284
   29.290      284
   29.305      268
   29.320      251
   29.335      233
   29.350      246
   29.365      275
   29.380      256
   29.395      264
   29.410      285
   29.425      295
   29.440      270
   29.455      231
   29.470      211
   29.485      208
   29.500      199
   29.515      200
   29.530      209
   29.545      220
   29.560      230
   29.575      208
   29.590      196
   29.605      200
   29.620      211
   29.635      204
   29.650      203
   29.665      216
   29.680      215
   29.695      209
   29.710      190
   29.725      215
   29.740      208
   29.755      209
   29.770      200
   29.785      193
   29.800      183
   29.815      195
   29.830      204
   29.845      210
   29.860      201
   29.875      202
   29.890      192
   29.905      210
   29.920      216
   29.935      192
   29.950      214
   29.965      214
   29.980      186
   29.995      199
   30.010      199
   30.025      205
   30.040      210
   30.055      201
   30.070      205
   30.085      235
   30.100      243
   30.115      217
   30.130      231
   30.145      229
   30.160      226
   30.175      240
   30.190      222
   30.205      226
   30.220      218
   30.235      221
   30.250      217
   30.265      189
   30.280      212
   30.295      187
   30.310      188
   30.325      181
   30.340      184
   30.355      197
   30.370      187
   30.385      187
   30.400      190
   30.415      207
   30.430      207
   30.445      228
   30.460      239
   30.475      255
   30.490      265
   30.505      264
   30.520      274
   30.535      285
   30.550      255
   30.565      271
   30.580      228
   30.595      231
   30.610      243
   30.625      267
   30.640      245
   30.655      242
   30.670      230
   30.685      222
   30.700      216
   30.715      212
   30.730      217
   30.745      227
   30.760      200
   30.775      214
   30.790      223
   30.805      221
   30.820      204
   30.835      200
   30.850      217
   30.865      220
   30.880      216
   30.895      223
   30.910      224
   30.925      223
   30.940      232
   30.955      224
   30.970      226
   30.985      224
   31.000      229
   31.015      223
   31.030      225
   31.045      235
   31.060      217
   31.075      235
   31.090      230
   31.105      238
   31.120      245
   31.135      239
   31.150      232
   31.165      240
   31.180      244
   31.195      249
   31.210      261
   31.225      257
   31.240      244
   31.255      249
   31.270      225
   31.285      236
   31.300      240
   31.315      243
   31.330      253
   31.345      249
   31.360      249
   31.375      268
   31.390      298
   31.405      319
   31.420      264
   31.435      260
   31.450      262
   31.465      243
   31.480      235
   31.495      235
   31.510      240
   31.525      246
   31.540      240
   31.555      234
   31.570      233
   31.585      206
   31.600      210
   31.615      210
   31.630      199
   31.645      226
   31.660      224
   31.675      221
   31.690      205
   31.705      198
   31.720      212
   31.735      216
   31.750      210
   31.765      200
   31.780      191
   31.795      203
   31.810      217
   31.825      204
   31.840      222
   31.855      213
   31.870      208
   31.885      201
   31.900      207
   31.915      205
   31.930      215
   31.945      214
   31.960      211
   31.975      200
   31.990      204
   32.005      199
   32.020      204
   32.035      183
   32.050      186
   32.065      201
   32.080      203
   32.095      207
   32.110      190
   32.125      171
   32.140      176
   32.155      192
   32.170      195
   32.185      207
   32.200      217
   32.215      204
   32.230      207
   32.245      194
   32.260      204
   32.275      195
   32.290      194
   32.305      179
   32.320      183
   32.335      202
   32.350      209
   32.365      211
   32.380      216
   32.395      215
   32.410      235
   32.425      246
   32.440      274
   32.455      295
   32.470      300
   32.485      308
   32.500      333
   32.515      333
   32.530      305
   32.545      276
   32.560      258
   32.575      244
   32.590      228
   32.605      214
   32.620      209
   32.635      234
   32.650      228
   32.665      212
   32.680      217
   32.695      230
   32.710      220
   32.725      209
   32.740      216
   32.755      213
   32.770      178
   32.785      192
   32.800      214
   32.815      194
   32.830      220
   32.845      214
   32.860      208
   32.875      217
   32.890      224
   32.905      246
   32.920      234
   32.935      243
   32.950      259
   32.965      276
   32.980      265
   32.995      236
   33.010      277
   33.025      273
   33.040      232
   33.055      260
   33.070      242
   33.085      235
   33.100      234
   33.115      225
   33.130      247
   33.145      262
   33.160      235
   33.175      223
   33.190      248
   33.205      246
   33.220      273
   33.235      240
   33.250      244
   33.265      292
   33.280      264
   33.295      294
   33.310      288
   33.325      273
   33.340      271
   33.355      284
   33.370      275
   33.385      248
   33.400      226
   33.415      235
   33.430      229
   33.445      262
   33.460      252
   33.475      260
   33.490      230
   33.505      225
   33.520      241
   33.535      240
   33.550      225
   33.565      221
   33.580      240
   33.595      206
   33.610      195
   33.625      221
   33.640      220
   33.655      220
   33.670      216
   33.685      198
   33.700      196
   33.715      186
   33.730      210
   33.745      184
   33.760      195
   33.775      196
   33.790      219
   33.805      193
   33.820      211
   33.835      193
   33.850      198
   33.865      190
   33.880      195
   33.895      197
   33.910      204
   33.925      197
   33.940      188
   33.955      203
   33.970      226
   33.985      230
   34.000      225
   34.015      238
   34.030      241
   34.045      233
   34.060      206
   34.075      204
   34.090      199
   34.105      198
   34.120      183
   34.135      173
   34.150      201
   34.165      183
   34.180      191
   34.195      171
   34.210      177
   34.225      213
   34.240      221
   34.255      231
   34.270      212
   34.285      224
   34.300      249
   34.315      221
   34.330      210
   34.345      192
   34.360      202
   34.375      219
   34.390      180
   34.405      209
   34.420      192
   34.435      194
   34.450      186
   34.465      193
   34.480      209
   34.495      207
   34.510      208
   34.525      200
   34.540      212
   34.555      221
   34.570      220
   34.585      199
   34.600      182
   34.615      206
   34.630      202
   34.645      216
   34.660      221
   34.675      229
   34.690      217
   34.705      263
   34.720      299
   34.735      274
   34.750      236
   34.765      256
   34.780      257
   34.795      253
   34.810      264
   34.825      254
   34.840      277
   34.855      269
   34.870      294
   34.885      299
   34.900      324
   34.915      310
   34.930      310
   34.945      318
   34.960      308
   34.975      302
   34.990      288
   35.005      306
   35.020      339
   35.035      325
   35.050      317
   35.065      333
   35.080      334
   35.095      291
   35.110      260
   35.125      262
   35.140      234
   35.155      226
   35.170      236
   35.185      225
   35.200      212
   35.215      216
   35.230      234
   35.245      208
   35.260      204
   35.275      207
   35.290      191
   35.305      196
   35.320      190
   35.335      183
   35.350      181
   35.365      201
   35.380      169
   35.395      172
   35.410      173
   35.425      175
   35.440      190
   35.455      189
   35.470      175
   35.485      173
   35.500      180
   35.515      180
   35.530      180
   35.545      169
   35.560      190
   35.575      181
   35.590      182
   35.605      183
   35.620      186
   35.635      199
   35.650      182
   35.665      193
   35.680      182
   35.695      182
   35.710      188
   35.725      190
   35.740      206
   35.755      216
   35.770      234
   35.785      209
   35.800      210
   35.815      195
   35.830      232
   35.845      213
   35.860      211
   35.875      192
   35.890      187
   35.905      203
   35.920      208
   35.935      203
   35.950      203
   35.965      195
   35.980      183
   35.995      173
   36.010      176
   36.025      186
   36.040      181
   36.055      179
   36.070      174
   36.085      185
   36.100      195
   36.115      188
   36.130      175
   36.145      199
   36.160      188
   36.175      195
   36.190      189
   36.205      194
   36.220      181
   36.235      177
   36.250      195
   36.265      196
   36.280      206
   36.295      188
   36.310      178
   36.325      189
   36.340      156
   36.355      162
   36.370      180
   36.385      172
   36.400      178
   36.415      162
   36.430      180
   36.445      186
   36.460      186
   36.475      197
   36.490      184
   36.505      189
   36.520      193
   36.535      199
   36.550      218
   36.565      211
   36.580      186
   36.595      180
   36.610      197
   36.625      197
   36.640      199
   36.655      207
   36.670      214
   36.685      213
   36.700      200
   36.715      223
   36.730      219
   36.745      225
   36.760      200
   36.775      199
   36.790      174
   36.805      191
   36.820      202
   36.835      188
   36.850      160
   36.865      190
   36.880      170
   36.895      159
   36.910      160
   36.925      169
   36.940      172
   36.955      176
   36.970      159
   36.985      172
   37.000      159
   37.015      155
   37.030      160
   37.045      169
   37.060      176
   37.075      149
   37.090      163
   37.105      185
   37.120      181
   37.135      167
   37.150      151
   37.165      177
   37.180      199
   37.195      177
   37.210      180
   37.225      174
   37.240      195
   37.255      173
   37.270      184
   37.285      169
   37.300      162
   37.315      168
   37.330      174
   37.345      178
   37.360      179
   37.375      190
   37.390      175
   37.405      175
   37.420      168
   37.435      159
   37.450      194
   37.465      203
   37.480      223
   37.495      221
   37.510      198
   37.525      190
   37.540      171
   37.555      180
   37.570      192
   37.585      196
   37.600      201
   37.615      187
   37.630      183
   37.645      192
   37.660      180
   37.675      183
   37.690      180
   37.705      176
   37.720      186
   37.735      191
   37.750      192
   37.765      202
   37.780      224
   37.795      239
   37.810      224
   37.825      220
   37.840      199
   37.855      191
   37.870      175
   37.885      185
   37.900      193
   37.915      171
   37.930      168
   37.945      163
   37.960      175
   37.975      194
   37.990      187
   38.005      180
   38.020      175
   38.035      167
   38.050      186
   38.065      212
   38.080      196
   38.095      195
   38.110      178
   38.125      203
   38.140      194
   38.155      179
   38.170      190
   38.185      193
   38.200      180
   38.215      180
   38.230      166
   38.245      167
   38.260      188
   38.275      182
   38.290      176
   38.305      177
   38.320      169
   38.335      193
   38.350      186
   38.365      168
   38.380      178
   38.395      163
   38.410      172
   38.425      177
   38.440      175
   38.455      169
   38.470      163
   38.485      170
   38.500      170
   38.515      158
   38.530      166
   38.545      173
   38.560      168
   38.575      153
   38.590      171
   38.605      168
   38.620      177
   38.635      167
   38.650      153
   38.665      164
   38.680      160
   38.695      164
   38.710      149
   38.725      156
   38.740      144
   38.755      143
   38.770      138
   38.785      148
   38.800      147
   38.815      139
   38.830      149
   38.845      142
   38.860      128
   38.875      126
   38.890      164
   38.905      161
   38.920      158
   38.935      165
   38.950      137
   38.965      154
   38.980      153
   38.995      132
   39.010      158
   39.025      153
   39.040      147
   39.055      136
   39.070      158
   39.085      163
   39.100      152
   39.115      186
   39.130      171
   39.145      167
   39.160      172
   39.175      165
   39.190      164
   39.205      184
   39.220      171
   39.235      177
   39.250      193
   39.265      169
   39.280      173
   39.295      177
   39.310      161
   39.325      189
   39.340      180
   39.355      160
   39.370      164
   39.385      153
   39.400      170
   39.415      164
   39.430      147
   39.445      151
   39.460      161
   39.475      157
   39.490      141
   39.505      129
   39.520      151
   39.535      167
   39.550      172
   39.565      155
   39.580      151
   39.595      161
   39.610      159
   39.625      153
   39.640      157
   39.655      156
   39.670      139
   39.685      149
   39.700      161
   39.715      131
   39.730      133
   39.745      134
   39.760      158
   39.775      156
   39.790      159
   39.805      153
   39.820      158
   39.835      165
   39.850      159
   39.865      169
   39.880      179
   39.895      184
   39.910      199
   39.925      179
   39.940      169
   39.955      153
   39.970      170
   39.985      195
   40.000      168
   40.015      153
   40.030      164
   40.045      164
   40.060      156
   40.075      192
   40.090      193
   40.105      184
   40.120      176
   40.135      176
   40.150      183
   40.165      181
   40.180      177
   40.195      177
   40.210      157
   40.225      176
   40.240      164
   40.255      164
   40.270      196
   40.285      154
   40.300      140
   40.315      136
   40.330      143
   40.345      136
   40.360      141
   40.375      153
   40.390      151
   40.405      154
   40.420      135
   40.435      138
   40.450      154
   40.465      168
   40.480      163
   40.495      127
   40.510      127
   40.525      142
   40.540      127
   40.555      141
   40.570      149
   40.585      144
   40.600      129
   40.615      148
   40.630      150
   40.645      134
   40.660      122
   40.675      143
   40.690      142
   40.705      144
   40.720      144
   40.735      137
   40.750      138
   40.765      129
   40.780      145
   40.795      151
   40.810      155
   40.825      147
   40.840      156
   40.855      146
   40.870      148
   40.885      158
   40.900      141
   40.915      144
   40.930      142
   40.945      144
   40.960      149
   40.975      129
   40.990      132
   41.005      152
   41.020      146
   41.035      141
   41.050      145
   41.065      153
   41.080      159
   41.095      149
   41.110      139
   41.125      146
   41.140      166
   41.155      163
   41.170      164
   41.185      160
   41.200      157
   41.215      161
   41.230      163
   41.245      154
   41.260      141
   41.275      148
   41.290      137
   41.305      163
   41.320      160
   41.335      151
   41.350      157
   41.365      166
   41.380      140
   41.395      144
   41.410      166
   41.425      173
   41.440      172
   41.455      172
   41.470      165
   41.485      153
   41.500      152
   41.515      147
   41.530      166
   41.545      158
   41.560      151
   41.575      160
   41.590      149
   41.605      147
   41.620      140
   41.635      164
   41.650      150
   41.665      137
   41.680      139
   41.695      150
   41.710      141
   41.725      144
   41.740      154
   41.755      143
   41.770      149
   41.785      138
   41.800      128
   41.815      136
   41.830      131
   41.845      147
   41.860      142
   41.875      144
   41.890      159
   41.905      145
   41.920      135
   41.935      134
   41.950      140
   41.965      140
   41.980      156
   41.995      172
   42.010      133
   42.025      147
   42.040      146
   42.055      142
   42.070      154
   42.085      146
   42.100      144
   42.115      149
   42.130      158
   42.145      156
   42.160      146
   42.175      151
   42.190      150
   42.205      145
   42.220      153
   42.235      144
   42.250      139
   42.265      157
   42.280      152
   42.295      146
   42.310      154
   42.325      152
   42.340      168
   42.355      172
   42.370      167
   42.385      164
   42.400      150
   42.415      182
   42.430      178
   42.445      146
   42.460      140
   42.475      150
   42.490      132
   42.505      138
   42.520      151
   42.535      148
   42.550      170
   42.565      145
   42.580      126
   42.595      149
   42.610      146
   42.625      159
   42.640      158
   42.655      141
   42.670      144
   42.685      152
   42.700      147
   42.715      143
   42.730      140
   42.745      138
   42.760      136
   42.775      127
   42.790      137
   42.805      136
   42.820      153
   42.835      153
   42.850      155
   42.865      152
   42.880      168
   42.895      138
   42.910      140
   42.925      135
   42.940      145
   42.955      132
   42.970      130
   42.985      141
   43.000      143
   43.015      134
   43.030      135
   43.045      153
   43.060      142
   43.075      140
   43.090      137
   43.105      125
   43.120      136
   43.135      166
   43.150      141
   43.165      145
   43.180      136
   43.195      141
   43.210      150
   43.225      161
   43.240      133
   43.255      141
   43.270      136
   43.285      138
   43.300      121
   43.315      125
   43.330      132
   43.345      136
   43.360      136
   43.375      149
   43.390      132
   43.405      137
   43.420      151
   43.435      117
   43.450      137
   43.465      141
   43.480      135
   43.495      145
   43.510      160
   43.525      157
   43.540      158
   43.555      136
   43.570      136
   43.585      141
   43.600      135
   43.615      133
   43.630      148
   43.645      168
   43.660      164
   43.675      134
   43.690      148
   43.705      143
   43.720      140
   43.735      140
   43.750      147
   43.765      140
   43.780      153
   43.795      150
   43.810      168
   43.825      161
   43.840      141
   43.855      144
   43.870      138
   43.885      141
   43.900      139
   43.915      138
   43.930      148
   43.945      156
   43.960      146
   43.975      156
   43.990      143
   44.005      138
   44.020      156
   44.035      164
   44.050      168
   44.065      167
   44.080      163
   44.095      169
   44.110      164
   44.125      162
   44.140      172
   44.155      145
   44.170      142
   44.185      145
   44.200      158
   44.215      175
   44.230      163
   44.245      156
   44.260      165
   44.275      169
   44.290      158
   44.305      159
   44.320      184
   44.335      184
   44.350      181
   44.365      184
   44.380      176
   44.395      185
   44.410      180
   44.425      161
   44.440      177
   44.455      174
   44.470      156
   44.485      173
   44.500      145
   44.515      155
   44.530      171
   44.545      166
   44.560      144
   44.575      141
   44.590      146
   44.605      161
   44.620      153
   44.635      156
   44.650      157
   44.665      143
   44.680      138
   44.695      160
   44.710      157
   44.725      146
   44.740      142
   44.755      152
   44.770      120
   44.785      140
   44.800      161
   44.815      151
   44.830      146
   44.845      142
   44.860      161
   44.875      144
   44.890      150
   44.905      127
   44.920      159
   44.935      147
   44.950      142
   44.965      135
   44.980      134
   44.995      133
   45.010      149
   45.025      125
   45.040      136
   45.055      134
   45.070      146
   45.085      148
   45.100      154
   45.115      138
   45.130      130
   45.145      142
   45.160      158
   45.175      142
   45.190      166
   45.205      143
   45.220      153
   45.235      127
   45.250      129
   45.265      141
   45.280      124
   45.295      138
   45.310      133
   45.325      143
   45.340      126
   45.355      136
   45.370      119
   45.385      128
   45.400      145
   45.415      158
   45.430      157
   45.445      155
   45.460      156
   45.475      149
   45.490      159
   45.505      153
   45.520      153
   45.535      132
   45.550      162
   45.565      152
   45.580      137
   45.595      148
   45.610      142
   45.625      131
   45.640      130
   45.655      149
   45.670      137
   45.685      124
   45.700      150
   45.715      156
   45.730      167
   45.745      155
   45.760      144
   45.775      132
   45.790      135
   45.805      149
   45.820      163
   45.835      140
   45.850      138
   45.865      133
   45.880      150
   45.895      143
   45.910      148
   45.925      131
   45.940      133
   45.955      139
   45.970      143
   45.985      155
