    4.000      205
    4.015      197
    4.030      202
    4.045      212
    4.060      212
    4.075      189
    4.090      203
    4.105      184
    4.120      182
    4.135      199
    4.150      215
    4.165      193
    4.180      208
    4.195      206
    4.210      217
    4.225      221
    4.240      206
    4.255      203
    4.270      174
    4.285      220
    4.300      213
    4.315      208
    4.330      177
    4.345      180
    4.360      189
    4.375      182
    4.390      201
    4.405      205
    4.420      195
    4.435      202
    4.450      204
    4.465      183
    4.480      198
    4.495      195
    4.510      191
    4.525      191
    4.540      206
    4.555      198
    4.570      178
    4.585      177
    4.600      178
    4.615      176
    4.630      179
    4.645      198
    4.660      190
    4.675      195
    4.690      203
    4.705      170
    4.720      170
    4.735      185
    4.750      183
    4.765      182
    4.780      197
    4.795      197
    4.810      183
    4.825      193
    4.840      185
    4.855      185
    4.870      191
    4.885      191
    4.900      196
    4.915      178
    4.930      196
    4.945      204
    4.960      209
    4.975      205
    4.990      186
    5.005      191
    5.020      191
    5.035      191
    5.050      186
    5.065      176
    5.080      183
    5.095      196
    5.110      177
    5.125      182
    5.140      181
    5.155      185
    5.170      176
    5.185      180
    5.200      181
    5.215      175
    5.230      190
    5.245      199
    5.260      199
    5.275      188
    5.290      183
    5.305      192
    5.320      184
    5.335      181
    5.350      179
    5.365      174
    5.380      173
    5.395      174
    5.410      169
    5.425      167
    5.440      200
    5.455      191
    5.470      192
    5.485      180
    5.500      177
    5.515      196
    5.530      183
    5.545      173
    5.560      180
    5.575      172
    5.590      189
    5.605      171
    5.620      190
    5.635      178
    5.650      177
    5.665      205
    5.680      203
    5.695      184
    5.710      168
    5.725      186
    5.740      171
    5.755      185
    5.770      175
    5.785      168
    5.800      192
    5.815      176
    5.830      180
    5.845      185
    5.860      189
    5.875      155
    5.890      193
    5.905      193
    5.920      186
    5.935      175
    5.950      184
    5.965      177
    5.980      195
    5.995      186
    6.010      199
    6.025      189
    6.040      186
    6.055      174
    6.070      189
    6.085      180
    6.100      171
    6.115      187
    6.130      192
    6.145      170
    6.160      186
    6.175      185
    6.190      212
    6.205      203
    6.220      213
    6.235      197
    6.250      205
    6.265      201
    6.280      217
    6.295      233
    6.310      226
    6.325      229
    6.340      234
    6.355      247
    6.370      249
    6.385      265
    6.400      256
    6.415      269
    6.430      272
    6.445      270
    6.460      318
    6.475      310
    6.490      341
    6.505      395
    6.520      445
    6.535      405
    6.550      391
    6.565      416
    6.580      421
    6.595      363
    6.610      279
    6.625      201
    6.640      184
    6.655      181
    6.670      181
    6.685      162
    6.700      158
    6.715      191
    6.730      185
    6.745      175
    6.760      204
    6.775      209
    6.790      186
    6.805      171
    6.820      176
    6.835      182
    6.850      174
    6.865      186
    6.880      169
    6.895      204
    6.910      202
    6.925      183
    6.940      179
    6.955      203
    6.970      218
    6.985      216
    7.000      215
    7.015      212
    7.030      224
    7.045      227
    7.060      240
    7.075      251
    7.090      304
    7.105      252
    7.120      205
    7.135      209
    7.150      201
    7.165      185
    7.180      190
    7.195      184
    7.210      173
    7.225      172
    7.240      175
    7.255      194
    7.270      175
    7.285      168
    7.300      168
    7.315      174
    7.330      163
    7.345      167
    7.360      190
    7.375      178
    7.390      202
    7.405      202
    7.420      188
    7.435      198
    7.450      200
    7.465      190
    7.480      197
    7.495      207
    7.510      194
    7.525      222
    7.540      251
    7.555      261
    7.570      240
    7.585      223
    7.600      191
    7.615      178
    7.630      192
    7.645      177
    7.660      173
    7.675      169
    7.690      146
    7.705      167
    7.720      164
    7.735      152
    7.750      172
    7.765      181
    7.780      172
    7.795      164
    7.810      165
    7.825      150
    7.840      181
    7.855      169
    7.870      185
    7.885      159
    7.900      173
    7.915      179
    7.930      172
    7.945      171
    7.960      177
    7.975      168
    7.990      182
    8.005      171
    8.020      183
    8.035      164
    8.050      168
    8.065      176
    8.080      173
    8.095      189
    8.110      177
    8.125      180
    8.140      159
    8.155      174
    8.170      177
    8.185      176
    8.200      189
    8.215      183
    8.230      174
    8.245      181
    8.260      184
    8.275      189
    8.290      188
    8.305      195
    8.320      176
    8.335      177
    8.350      181
    8.365      168
    8.380      184
    8.395      194
    8.410      196
    8.425      186
    8.440      183
    8.455      206
    8.470      194
    8.485      173
    8.500      191
    8.515      176
    8.530      169
    8.545      183
    8.560      204
    8.575      197
    8.590      181
    8.605      191
    8.620      183
    8.635      158
    8.650      166
    8.665      153
    8.680      173
    8.695      167
    8.710      191
    8.725      191
    8.740      180
    8.755      208
    8.770      171
    8.785      182
    8.800      176
    8.815      173
    8.830      159
    8.845      166
    8.860      191
    8.875      170
    8.890      173
    8.905      200
    8.920      178
    8.935      184
    8.950      168
    8.965      166
    8.980      175
    8.995      168
    9.010      169
    9.025      186
    9.040      170
    9.055      186
    9.070      202
    9.085      201
    9.100      199
    9.115      194
    9.130      190
    9.145      202
    9.160      194
    9.175      213
    9.190      190
    9.205      182
    9.220      185
    9.235      184
    9.250      201
    9.265      216
    9.280      218
    9.295      183
    9.310      192
    9.325      210
    9.340      204
    9.355      198
    9.370      203
    9.385      185
    9.400      196
    9.415      198
    9.430      183
    9.445      177
    9.460      199
    9.475      199
    9.490      178
    9.505      173
    9.520      179
    9.535      208
    9.550      200
    9.565      198
    9.580      196
    9.595      202
    9.610      208
    9.625      204
    9.640      182
    9.655      213
    9.670      249
    9.685      214
    9.700      222
    9.715      220
    9.730      221
    9.745      207
    9.760      192
    9.775      196
    9.790      184
    9.805      194
    9.820      191
    9.835      206
    9.850      211
    9.865      199
    9.880      203
    9.895      210
    9.910      204
    9.925      219
    9.940      221
    9.955      193
    9.970      187
    9.985      188
   10.000      190
   10.015      199
   10.030      188
   10.045      196
   10.060      192
   10.075      203
   10.090      222
   10.105      234
   10.120      219
   10.135      191
   10.150      199
   10.165      238
   10.180      214
   10.195      224
   10.210      235
   10.225      240
   10.240      238
   10.255      234
   10.270      285
   10.285      314
   10.300      284
   10.315      345
   10.330      395
   10.345      365
   10.360      296
   10.375      261
   10.390      212
   10.405      194
   10.420      199
   10.435      194
   10.450      209
   10.465      215
   10.480      200
   10.495      204
   10.510      192
   10.525      197
   10.540      228
   10.555      182
   10.570      190
   10.585      214
   10.600      219
   10.615      227
   10.630      207
   10.645      215
   10.660      224
   10.675      244
   10.690      253
   10.705      249
   10.720      286
   10.735      251
   10.750      239
   10.765      219
   10.780      213
   10.795      208
   10.810      174
   10.825      170
   10.840      181
   10.855      195
   10.870      209
   10.885      204
   10.900      201
   10.915      208
   10.930      219
   10.945      213
   10.960      223
   10.975      222
   10.990      244
   11.005      254
   11.020      282
   11.035      299
   11.050      297
   11.065      344
   11.080      364
   11.095      350
   11.110      324
   11.125      265
   11.140      215
   11.155      200
   11.170      204
   11.185      202
   11.200      221
   11.215      222
   11.230      235
   11.245      225
   11.260      266
   11.275      260
   11.290      254
   11.305      233
   11.320      201
   11.335      195
   11.350      182
   11.365      184
   11.380      180
   11.395      183
   11.410      186
   11.425      179
   11.440      168
   11.455      188
   11.470      172
   11.485      184
   11.500      181
   11.515      192
   11.530      192
   11.545      193
   11.560      191
   11.575      204
   11.590      191
   11.605      209
   11.620      219
   11.635      210
   11.650      221
   11.665      228
   11.680      243
   11.695      272
   11.710      292
   11.725      300
   11.740      288
   11.755      234
   11.770      200
   11.785      219
   11.800      219
   11.815      215
   11.830      235
   11.845      246
   11.860      249
   11.875      224
   11.890      275
   11.905      260
   11.920      265
   11.935      248
   11.950      228
   11.965      201
   11.980      192
   11.995      197
   12.010      190
   12.025      208
   12.040      209
   12.055      200
   12.070      176
   12.085      177
   12.100      190
   12.115      192
   12.130      194
   12.145      192
   12.160      187
   12.175      208
   12.190      201
   12.205      226
   12.220      195
   12.235      228
   12.250      227
   12.265      228
   12.280      240
   12.295      259
   12.310      264
   12.325      301
   12.340      353
   12.355      375
   12.370      445
   12.385      527
   12.400      613
   12.415      708
   12.430      819
   12.445      968
   12.460     1161
   12.475     1378
   12.490     1735
   12.505     1976
   12.520     1881
   12.535     1525
   12.550     1303
   12.565     1361
   12.580     1352
   12.595     1384
   12.610     1165
   12.625      830
   12.640      547
   12.655      381
   12.670      333
   12.685      272
   12.700      294
   12.715      259
   12.730      262
   12.745      265
   12.760      271
   12.775      285
   12.790      302
   12.805      341
   12.820      400
   12.835      401
   12.850      442
   12.865      555
   12.880      630
   12.895      646
   12.910      605
   12.925      505
   12.940      491
   12.955      563
   12.970      673
   12.985      713
   13.000      854
   13.015     1120
   13.030     1301
   13.045     1736
   13.060     2169
   13.075     2257
   13.090     2029
   13.105     1809
   13.120     1766
   13.135     1867
   13.150     2270
   13.165     2977
   13.180     3741
   13.195     3482
   13.210     2329
   13.225     1283
   13.240      722
   13.255      555
   13.270      455
   13.285      379
   13.300      421
   13.315      444
   13.330      446
   13.345      528
   13.360      552
   13.375      590
   13.390      719
   13.405      835
   13.420      919
   13.435      885
   13.450      893
   13.465      742
   13.480      552
   13.495      402
   13.510      306
   13.525      292
   13.540      256
   13.555      262
   13.570      279
   13.585      274
   13.600      283
   13.615      318
   13.630      333
   13.645      370
   13.660      420
   13.675      487
   13.690      471
   13.705      408
   13.720      322
   13.735      265
   13.750      213
   13.765      208
   13.780      211
   13.795      197
   13.810      209
   13.825      192
   13.840      174
   13.855      196
   13.870      216
   13.885      196
   13.900      193
   13.915      203
   13.930      183
   13.945      195
   13.960      214
   13.975      227
   13.990      228
   14.005      244
   14.020      250
   14.035      226
   14.050      220
   14.065      262
   14.080      312
   14.095      337
   14.110      379
   14.125      454
   14.140      504
   14.155      503
   14.170      443
   14.185      451
   14.200      475
   14.215      518
   14.230      548
   14.245      470
   14.260      469
   14.275      492
   14.290      564
   14.305      630
   14.320      782
   14.335      892
   14.350      963
   14.365      803
   14.380      547
   14.395      369
   14.410      298
   14.425      244
   14.440      224
   14.455      203
   14.470      223
   14.485      197
   14.500      199
   14.515      201
   14.530      199
   14.545      191
   14.560      196
   14.575      217
   14.590      245
   14.605      202
   14.620      197
   14.635      218
   14.650      208
   14.665      239
   14.680      229
   14.695      240
   14.710      246
   14.725      277
   14.740      295
   14.755      308
   14.770      369
   14.785      431
   14.800      513
   14.815      583
   14.830      692
   14.845      869
   14.860      939
   14.875      994
   14.890     1174
   14.905     1449
   14.920     1680
   14.935     1730
   14.950     1346
   14.965      853
   14.980      601
   14.995      406
   15.010      341
   15.025      340
   15.040      358
   15.055      365
   15.070      364
   15.085      378
   15.100      407
   15.115      488
   15.130      599
   15.145      677
   15.160      657
   15.175      573
   15.190      479
   15.205      446
   15.220      439
   15.235      377
   15.250      331
   15.265      309
   15.280      291
   15.295      304
   15.310      350
   15.325      354
   15.340      329
   15.355      401
   15.370      437
   15.385      469
   15.400      590
   15.415      682
   15.430      695
   15.445      590
   15.460      446
   15.475      348
   15.490      318
   15.505      338
   15.520      371
   15.535      413
   15.550      426
   15.565      475
   15.580      531
   15.595      653
   15.610      691
   15.625      674
   15.640      548
   15.655      407
   15.670      293
   15.685      275
   15.700      253
   15.715      240
   15.730      260
   15.745      281
   15.760      262
   15.775      275
   15.790      283
   15.805      270
   15.820      320
   15.835      366
   15.850      355
   15.865      434
   15.880      497
   15.895      532
   15.910      643
   15.925      751
   15.940      811
   15.955      846
   15.970      773
   15.985      621
   16.000      473
   16.015      369
   16.030      351
   16.045      348
   16.060      369
   16.075      411
   16.090      430
   16.105      486
   16.120      572
   16.135      551
   16.150      541
   16.165      535
   16.180      579
   16.195      653
   16.210      777
   16.225      942
   16.240     1098
   16.255     1254
   16.270     1097
   16.285      850
   16.300      710
   16.315      658
   16.330      782
   16.345      852
   16.360      934
   16.375      965
   16.390      914
   16.405      862
   16.420      733
   16.435      693
   16.450      671
   16.465      742
   16.480      889
   16.495     1005
   16.510     1228
   16.525     1213
   16.540     1076
   16.555      946
   16.570      886
   16.585      917
   16.600      918
   16.615      948
   16.630      855
   16.645      703
   16.660      522
   16.675      399
   16.690      323
   16.705      338
   16.720      345
   16.735      389
   16.750      365
   16.765      371
   16.780      422
   16.795      434
   16.810      522
   16.825      590
   16.840      618
   16.855      563
   16.870      418
   16.885      365
   16.900      347
   16.915      320
   16.930      298
   16.945      296
   16.960      333
   16.975      351
   16.990      385
   17.005      445
   17.020      489
   17.035      487
   17.050      477
   17.065      427
   17.080      369
   17.095      360
   17.110      393
   17.125      362
   17.140      372
   17.155      357
   17.170      331
   17.185      316
   17.200      317
   17.215      346
   17.230      363
   17.245      426
   17.260      507
   17.275      572
   17.290      582
   17.305      535
   17.320      402
   17.335      315
   17.350      260
   17.365      240
   17.380      235
   17.395      241
   17.410      265
   17.425      269
   17.440      303
   17.455      320
   17.470      338
   17.485      347
   17.500      320
   17.515      304
   17.530      325
   17.545      371
   17.560      377
   17.575      378
   17.590      323
   17.605      274
   17.620      253
   17.635      233
   17.650      236
   17.665      232
   17.680      220
   17.695      195
   17.710      222
   17.725      198
   17.740      177
   17.755      193
   17.770      189
   17.785      190
   17.800      185
   17.815      174
   17.830      202
   17.845      213
   17.860      193
   17.875      177
   17.890      192
   17.905      191
   17.920      204
   17.935      216
   17.950      216
   17.965      219
   17.980      236
   17.995      243
   18.010      283
   18.025      315
   18.040      329
   18.055      370
   18.070      409
   18.085      441
   18.100      430
   18.115      382
   18.130      315
   18.145      245
   18.160      220
   18.175      212
   18.190      223
   18.205      211
   18.220      219
   18.235      230
   18.250      231
   18.265      249
   18.280      275
   18.295      296
   18.310      342
   18.325      404
   18.340      452
   18.355      526
   18.370      517
   18.385      491
   18.400      523
   18.415      508
   18.430      578
   18.445      643
   18.460      669
   18.475      645
   18.490      670
   18.505      642
   18.520      556
   18.535      496
   18.550      429
   18.565      375
   18.580      352
   18.595      400
   18.610      399
   18.625      413
   18.640      479
   18.655      485
   18.670      569
   18.685      571
   18.700      489
   18.715      416
   18.730      350
   18.745      324
   18.760      373
   18.775      336
   18.790      301
   18.805      261
   18.820      233
   18.835      219
   18.850      202
   18.865      203
   18.880      203
   18.895      184
   18.910      184
   18.925      172
   18.940      183
   18.955      166
   18.970      188
   18.985      203
   19.000      196
   19.015      205
   19.030      189
   19.045      190
   19.060      211
   19.075      195
   19.090      183
   19.105      179
   19.120      184
   19.135      198
   19.150      182
   19.165      201
   19.180      206
   19.195      183
   19.210      170
   19.225      180
   19.240      202
   19.255      190
   19.270      222
   19.285      229
   19.300      243
   19.315      251
   19.330      287
   19.345      334
   19.360      364
   19.375      379
   19.390      414
   19.405      437
   19.420      416
   19.435      351
   19.450      324
   19.465      294
   19.480      271
   19.495      272
   19.510      264
   19.525      299
   19.540      279
   19.555      349
   19.570      385
   19.585      476
   19.600      513
   19.615      593
   19.630      725
   19.645      872
   19.660      993
   19.675     1096
   19.690      980
   19.705      821
   19.720      670
   19.735      648
   19.750      644
   19.765      738
   19.780      774
   19.795      772
   19.810      711
   19.825      652
   19.840      561
   19.855      430
   19.870      368
   19.885      299
   19.900      287
   19.915      319
   19.930      309
   19.945      276
   19.960      320
   19.975      351
   19.990      352
   20.005      314
   20.020      279
   20.035      251
   20.050      226
   20.065      218
   20.080      206
   20.095      192
   20.110      195
   20.125      189
   20.140      181
   20.155      193
   20.170      176
   20.185      177
   20.200      193
   20.215      212
   20.230      221
   20.245      211
   20.260      206
   20.275      192
   20.290      200
   20.305      188
   20.320      198
   20.335      205
   20.350      186
   20.365      214
   20.380      233
   20.395      218
   20.410      221
   20.425      249
   20.440      257
   20.455      256
   20.470      287
   20.485      326
   20.500      341
   20.515      382
   20.530      419
   20.545      416
   20.560      410
   20.575      386
   20.590      384
   20.605      408
   20.620      452
   20.635      462
   20.650      395
   20.665      312
   20.680      294
   20.695      235
   20.710      241
   20.725      252
   20.740      248
   20.755      254
   20.770      249
   20.785      249
   20.800      229
   20.815      249
   20.830      195
   20.845      223
   20.860      230
   20.875      248
   20.890      249
   20.905      216
   20.920      212
   20.935      205
   20.950      232
   20.965      214
   20.980      245
   20.995      270
   21.010      285
   21.025      245
   21.040      216
   21.055      190
   21.070      172
   21.085      185
   21.100      188
   21.115      185
   21.130      179
   21.145      196
   21.160      190
   21.175      207
   21.190      205
   21.205      221
   21.220      241
   21.235      280
   21.250      264
   21.265      282
   21.280      361
   21.295      418
   21.310      478
   21.325      581
   21.340      658
   21.355      650
   21.370      656
   21.385      578
   21.400      482
   21.415      484
   21.430      478
   21.445      552
   21.460      652
   21.475      801
   21.490      963
   21.505     1254
   21.520     1519
   21.535     1736
   21.550     1607
   21.565     1185
   21.580      844
   21.595      633
   21.610      547
   21.625      483
   21.640      448
   21.655      420
   21.670      398
   21.685      378
   21.700      337
   21.715      300
   21.730      257
   21.745      224
   21.760      199
   21.775      195
   21.790      212
   21.805      204
   21.820      204
   21.835      219
   21.850      224
   21.865      219
   21.880      194
   21.895      224
   21.910      216
   21.925      217
   21.940      220
   21.955      210
   21.970      204
   21.985      213
   22.000      210
   22.015      229
   22.030      267
   22.045      267
   22.060      268
   22.075      279
   22.090      302
   22.105      324
   22.120      376
   22.135      417
   22.150      382
   22.165      305
   22.180      251
   22.195      233
   22.210      235
   22.225      217
   22.240      262
   22.255      293
   22.270      309
   22.285      343
   22.300      395
   22.315      395
   22.330      409
   22.345      502
   22.360      524
   22.375      511
   22.390      437
   22.405      356
   22.420      345
   22.435      363
   22.450      353
   22.465      393
   22.480      428
   22.495      461
   22.510      562
   22.525      608
   22.540      644
   22.555      687
   22.570      676
   22.585      608
   22.600      551
   22.615      494
   22.630      438
   22.645      406
   22.660      331
   22.675      295
   22.690      285
   22.705      289
   22.720      286
   22.735      323
   22.750      325
   22.765      364
   22.780      426
   22.795      428
   22.810      397
   22.825      360
   22.840      328
   22.855      334
   22.870      342
   22.885      342
   22.900      374
   22.915      398
   22.930      355
   22.945      309
   22.960      285
   22.975      254
   22.990      231
   23.005      236
   23.020      229
   23.035      223
   23.050      236
   23.065      214
   23.080      239
   23.095      274
   23.110      291
   23.125      266
   23.140      247
   23.155      222
   23.170      195
   23.185      180
   23.200      170
   23.215      189
   23.230      173
   23.245      176
   23.260      156
   23.275      169
   23.290      184
   23.305      190
   23.320      177
   23.335      170
   23.350      167
   23.365      167
   23.380      181
   23.395      179
   23.410      177
   23.425      176
   23.440      187
   23.455      167
   23.470      181
   23.485      164
   23.500      160
   23.515      179
   23.530      211
   23.545      199
   23.560      218
   23.575      192
   23.590      189
   23.605      188
   23.620      197
   23.635      184
   23.650      238
   23.665      238
   23.680      269
   23.695      277
   23.710      283
   23.725      230
   23.740      211
   23.755      210
   23.770      206
   23.785      178
   23.800      181
   23.815      190
   23.830      182
   23.845      197
   23.860      211
   23.875      229
   23.890      260
   23.905      329
   23.920      302
   23.935      371
   23.950      378
   23.965      356
   23.980      312
   23.995      278
   24.010      238
   24.025      214
   24.040      210
   24.055      255
   24.070      254
   24.085      277
   24.100      281
   24.115      262
   24.130      246
   24.145      275
   24.160      277
   24.175      271
   24.190      260
   24.205      239
   24.220      230
   24.235      221
   24.250      219
   24.265      221
   24.280      199
   24.295      221
   24.310      225
   24.325      243
   24.340      217
   24.355      192
   24.370      211
   24.385      196
   24.400      214
   24.415      215
   24.430      201
   24.445      188
   24.460      178
   24.475      189
   24.490      193
   24.505      213
   24.520      193
   24.535      181
   24.550      188
   24.565      196
   24.580      169
   24.595      202
   24.610      237
   24.625      270
   24.640      306
   24.655      319
   24.670      329
   24.685      352
   24.700      303
   24.715      279
   24.730      279
   24.745      255
   24.760      238
   24.775      284
   24.790      239
   24.805      272
   24.820      299
   24.835      308
   24.850      317
   24.865      332
   24.880      319
   24.895      309
   24.910      273
   24.925      234
   24.940      205
   24.955      220
   24.970      212
   24.985      193
   25.000      199
   25.015      221
   25.030      221
   25.045      218
   25.060      241
   25.075      274
   25.090      287
   25.105      331
   25.120      312
   25.135      260
   25.150      269
   25.165      291
   25.180      297
   25.195      260
   25.210      269
   25.225      268
   25.240      272
   25.255      327
   25.270      332
   25.285      372
   25.300      404
   25.315      480
   25.330      506
   25.345      502
   25.360      485
   25.375      433
   25.390      413
   25.405      359
   25.420      296
   25.435      268
   25.450      243
   25.465      227
   25.480      254
   25.495      264
   25.510      303
   25.525      318
   25.540      310
   25.555      311
   25.570      328
   25.585      314
   25.600      270
   25.615      228
   25.630      204
   25.645      214
   25.660      224
   25.675      220
   25.690      218
   25.705      210
   25.720      229
   25.735      224
   25.750      246
   25.765      251
   25.780      267
   25.795      259
   25.810      285
   25.825      291
   25.840      265
   25.855      256
   25.870      263
   25.885      248
   25.900      217
   25.915      213
   25.930      219
   25.945      219
   25.960      212
   25.975      197
   25.990      215
   26.005      212
   26.020      202
   26.035      208
   26.050      200
   26.065      198
   26.080      181
   26.095      181
   26.110      173
   26.125      170
   26.140      168
   26.155      167
   26.170      171
   26.185      167
   26.200      164
   26.215      178
   26.230      183
   26.245      182
   26.260      186
   26.275      211
   26.290      272
   26.305      300
   26.320      298
   26.335      296
   26.350      264
   26.365      231
   26.380      182
   26.395      202
   26.410      201
   26.425      188
   26.440      210
   26.455      189
   26.470      236
   26.485      229
   26.500      270
   26.515      295
   26.530      354
   26.545      404
   26.560      426
   26.575      425
   26.590      410
   26.605      413
   26.620      440
   26.635      446
   26.650      395
   26.665      373
   26.680      346
   26.695      272
   26.710      250
   26.725      220
   26.740      210
   26.755      236
   26.770      202
   26.785      203
   26.800      211
   26.815      205
   26.830      176
   26.845      200
   26.860      219
   26.875      229
   26.890      235
   26.905      238
   26.920      236
   26.935      223
   26.950      196
   26.965      210
   26.980      200
   26.995      202
   27.010      217
   27.025      206
   27.040      215
   27.055      230
   27.070      214
   27.085      236
   27.100      251
   27.115      258
   27.130      289
   27.145      325
   27.160      346
   27.175      380
   27.190      371
   27.205      367
   27.220      373
   27.235      374
   27.250      376
   27.265      404
   27.280      416
   27.295      390
   27.310      395
   27.325      399
   27.340      361
   27.355      339
   27.370      295
   27.385      276
   27.400      269
   27.415      232
   27.430      233
   27.445      243
   27.460      232
   27.475      239
   27.490      241
   27.505      264
   27.520      284
   27.535      301
   27.550      286
   27.565      253
   27.580      264
   27.595      247
   27.610      223
   27.625      209
   27.640      216
   27.655      208
   27.670      189
   27.685      192
   27.700      221
   27.715      237
   27.730      257
   27.745      247
   27.760      280
   27.775      256
   27.790      262
   27.805      250
   27.820      227
   27.835      242
   27.850      245
   27.865      268
   27.880      261
   27.895      263
   27.910      245
   27.925      256
   27.940      293
   27.955      279
   27.970      249
   27.985      251
   28.000      257
   28.015      256
   28.030      246
   28.045      235
   28.060      228
   28.075      214
   28.090      205
   28.105      223
   28.120      194
   28.135      168
   28.150      189
   28.165      210
   28.180      194
   28.195      182
   28.210      167
   28.225      170
   28.240      177
   28.255      203
   28.270      217
   28.285      216
   28.300      210
   28.315      226
   28.330      188
   28.345      244
   28.360      240
   28.375      218
   28.390      210
   28.405      237
   28.420      239
   28.435      219
   28.450      224
   28.465      203
   28.480      219
   28.495      250
   28.510      267
   28.525      288
   28.540      266
   28.555      272
   28.570      284
   28.585      274
   28.600      279
   28.615      263
   28.630      231
   28.645      225
   28.660      217
   28.675      237
   28.690      239
   28.705      231
   28.720      214
   28.735      228
   28.750      213
   28.765      225
   28.780      220
   28.795      207
   28.810      214
   28.825      204
   28.840      216
   28.855      238
   28.870      228
   28.885      229
   28.900      241
   28.915      225
   28.930      194
   28.945      209
   28.960      200
   28.975      191
   28.990      192
   29.005      184
   29.020      177
   29.035      189
   29.050      192
   29.065      189
   29.080      187
   29.095      194
   29.110      219
   29.125      219
   29.140      257
   29.155      247
   29.170      242
   29.185      248
   29.200      259
   29.215      273
   29.230      303
   29.245      310
   29.260      306
   29.275      337
   29.290      351
   29.305      350
   29.320      330
   29.335      312
   29.350      264
   29.365      263
   29.380      247
   29.395      255
   29.410      261
   29.425      248
   29.440      252
   29.455      249
   29.470      243
   29.485      251
   29.500      222
   29.515      221
   29.530      186
   29.545      181
   29.560      182
   29.575      191
   29.590      185
   29.605      181
   29.620      184
   29.635      194
   29.650      198
   29.665      207
   29.680      212
   29.695      212
   29.710      196
   29.725      194
   29.740      196
   29.755      193
   29.770      199
   29.785      177
   29.800      187
   29.815      180
   29.830      169
   29.845      190
   29.860      188
   29.875      182
   29.890      204
   29.905      209
   29.920      203
   29.935      176
   29.950      186
   29.965      203
   29.980      203
   29.995      212
   30.010      199
   30.025      192
   30.040      193
   30.055      189
   30.070      202
   30.085      190
   30.100      189
   30.115      210
   30.130      235
   30.145      238
   30.160      235
   30.175      231
   30.190      247
   30.205      249
   30.220      244
   30.235      248
   30.250      252
   30.265      252
   30.280      225
   30.295      242
   30.310      215
   30.325      184
   30.340      176
   30.355      188
   30.370      183
   30.385      174
   30.400      175
   30.415      179
   30.430      201
   30.445      194
   30.460      184
   30.475      209
   30.490      217
   30.505      235
   30.520      277
   30.535      264
   30.550      296
   30.565      304
   30.580      281
   30.595      297
   30.610      271
   30.625      255
   30.640      243
   30.655      232
   30.670      209
   30.685      233
   30.700      241
   30.715      219
   30.730      234
   30.745      216
   30.760      209
   30.775      212
   30.790      204
   30.805      207
   30.820      216
   30.835      205
   30.850      203
   30.865      218
   30.880      195
   30.895      181
   30.910      202
   30.925      236
   30.940      218
   30.955      224
   30.970      238
   30.985      227
   31.000      229
   31.015      233
   31.030      217
   31.045      198
   31.060      202
   31.075      232
   31.090      241
   31.105      238
   31.120      240
   31.135      247
   31.150      226
   31.165      227
   31.180      265
   31.195      239
   31.210      240
   31.225      223
   31.240      213
   31.255      221
   31.270      241
   31.285      240
   31.300      238
   31.315      252
   31.330      246
   31.345      271
   31.360      279
   31.375      263
   31.390      276
   31.405      273
   31.420      299
   31.435      306
   31.450      328
   31.465      332
   31.480      313
   31.495      293
   31.510      266
   31.525      244
   31.540      243
   31.555      260
   31.570      254
   31.585      258
   31.600      224
   31.615      205
   31.630      223
   31.645      236
   31.660      222
   31.675      223
   31.690      239
   31.705      233
   31.720      228
   31.735      206
   31.750      219
   31.765      207
   31.780      190
   31.795      189
   31.810      198
   31.825      193
   31.840      179
   31.855      198
   31.870      173
   31.885      187
   31.900      179
   31.915      187
   31.930      198
   31.945      208
   31.960      202
   31.975      196
   31.990      200
   32.005      202
   32.020      194
   32.035      181
   32.050      185
   32.065      182
   32.080      186
   32.095      173
   32.110      177
   32.125      165
   32.140      169
   32.155      161
   32.170      170
   32.185      190
   32.200      181
   32.215      194
   32.230      195
   32.245      183
   32.260      168
   32.275      171
   32.290      164
   32.305      198
   32.320      200
   32.335      186
   32.350      177
   32.365      177
   32.380      188
   32.395      206
   32.410      194
   32.425      204
   32.440      205
   32.455      225
   32.470      250
   32.485      264
   32.500      293
   32.515      292
   32.530      310
   32.545      301
   32.560      312
   32.575      322
   32.590      311
   32.605      274
   32.620      253
   32.635      221
   32.650      208
   32.665      205
   32.680      202
   32.695      229
   32.710      219
   32.725      226
   32.740      228
   32.755      181
   32.770      208
   32.785      192
   32.800      218
   32.815      200
   32.830      177
   32.845      199
   32.860      163
   32.875      192
   32.890      198
   32.905      180
   32.920      199
   32.935      204
   32.950      220
   32.965      249
   32.980      232
   32.995      231
   33.010      266
   33.025      282
   33.040      298
   33.055      297
   33.070      297
   33.085      275
   33.100      276
   33.115      278
   33.130      252
   33.145      244
   33.160      259
   33.175      249
   33.190      238
   33.205      221
   33.220      229
   33.235      234
   33.250      227
   33.265      226
   33.280      226
   33.295      199
   33.310      246
   33.325      256
   33.340      233
   33.355      281
   33.370      302
   33.385      315
   33.400      320
   33.415      283
   33.430      262
   33.445      239
   33.460      231
   33.475      238
   33.490      248
   33.505      241
   33.520      241
   33.535      279
   33.550      238
   33.565      220
   33.580      220
   33.595      225
   33.610      219
   33.625      237
   33.640      211
   33.655      212
   33.670      217
   33.685      200
   33.700      192
   33.715      193
   33.730      200
   33.745      178
   33.760      194
   33.775      176
   33.790      183
   33.805      189
   33.820      190
   33.835      182
   33.850      175
   33.865      174
   33.880      149
   33.895      180
   33.910      193
   33.925      177
   33.940      195
   33.955      184
   33.970      203
   33.985      207
   34.000      213
   34.015      215
   34.030      226
   34.045      204
   34.060      237
   34.075      221
   34.090      241
   34.105      225
   34.120      228
   34.135      204
   34.150      194
   34.165      176
   34.180      199
   34.195      181
   34.210      183
   34.225      185
   34.240      194
   34.255      196
   34.270      194
   34.285      207
   34.300      218
   34.315      203
   34.330      244
   34.345      227
   34.360      240
   34.375      212
   34.390      214
   34.405      226
   34.420      190
   34.435      191
   34.450      197
   34.465      212
   34.480      181
   34.495      205
   34.510      213
   34.525      209
   34.540      224
   34.555      206
   34.570      210
   34.585      224
   34.600      205
   34.615      222
   34.630      209
   34.645      193
   34.660      191
   34.675      190
   34.690      216
   34.705      224
   34.720      201
   34.735      228
   34.750      237
   34.765      253
   34.780      261
   34.795      262
   34.810      311
   34.825      288
   34.840      293
   34.855      278
   34.870      281
   34.885      266
   34.900      256
   34.915      272
   34.930      285
   34.945      302
   34.960      295
   34.975      318
   34.990      369
   35.005      354
   35.020      316
   35.035      325
   35.050      344
   35.065      329
   35.080      324
   35.095      368
   35.110      356
   35.125      340
   35.140      363
   35.155      369
   35.170      319
   35.185      276
   35.200      258
   35.215      252
   35.230      244
   35.245      245
   35.260      238
   35.275      211
   35.290      196
   35.305      205
   35.320      190
   35.335      195
   35.350      179
   35.365      174
   35.380      204
   35.395      172
   35.410      179
   35.425      176
   35.440      158
   35.455      170
   35.470      176
   35.485      165
   35.500      177
   35.515      176
   35.530      183
   35.545      182
   35.560      175
   35.575      170
   35.590      179
   35.605      160
   35.620      184
   35.635      181
   35.650      167
   35.665      197
   35.680      195
   35.695      174
   35.710      205
   35.725      191
   35.740      177
   35.755      186
   35.770      177
   35.785      218
   35.800      225
   35.815      209
   35.830      222
   35.845      229
   35.860      208
   35.875      211
   35.890      192
   35.905      181
   35.920      179
   35.935      180
   35.950      191
   35.965      203
   35.980      162
   35.995      187
   36.010      181
   36.025      159
   36.040      170
   36.055      180
   36.070      182
   36.085      167
   36.100      199
   36.115      173
   36.130      189
   36.145      187
   36.160      161
   36.175      169
   36.190      179
   36.205      162
   36.220      181
   36.235      181
   36.250      186
   36.265      185
   36.280      179
   36.295      193
   36.310      174
   36.325      193
   36.340      179
   36.355      172
   36.370      197
   36.385      189
   36.400      190
   36.415      173
   36.430      162
   36.445      179
   36.460      193
   36.475      200
   36.490      179
   36.505      181
   36.520      183
   36.535      176
   36.550      168
   36.565      190
   36.580      164
   36.595      175
   36.610      190
   36.625      209
   36.640      195
   36.655      174
   36.670      173
   36.685      179
   36.700      195
   36.715      191
   36.730      201
   36.745      201
   36.760      198
   36.775      209
   36.790      225
   36.805      226
   36.820      200
   36.835      177
   36.850      188
   36.865      173
   36.880      159
   36.895      184
   36.910      151
   36.925      150
   36.940      159
   36.955      169
   36.970      158
   36.985      147
   37.000      154
   37.015      150
   37.030      143
   37.045      177
   37.060      160
   37.075      164
   37.090      167
   37.105      167
   37.120      169
   37.135      175
   37.150      149
   37.165      166
   37.180      166
   37.195      173
   37.210      177
   37.225      176
   37.240      158
   37.255      157
   37.270      155
   37.285      166
   37.300      157
   37.315      173
   37.330      180
   37.345      155
   37.360      184
   37.375      179
   37.390      178
   37.405      195
   37.420      183
   37.435      183
   37.450      176
   37.465      202
   37.480      209
   37.495      210
   37.510      191
   37.525      188
   37.540      210
   37.555      204
   37.570      229
   37.585      200
   37.600      185
   37.615      190
   37.630      181
   37.645      176
   37.660      173
   37.675      177
   37.690      195
   37.705      172
   37.720      177
   37.735      174
   37.750      179
   37.765      169
   37.780      165
   37.795      176
   37.810      176
   37.825      192
   37.840      186
   37.855      223
   37.870      225
   37.885      236
   37.900      218
   37.915      204
   37.930      190
   37.945      181
   37.960      179
   37.975      158
   37.990      172
   38.005      181
   38.020      184
   38.035      182
   38.050      174
   38.065      182
   38.080      184
   38.095      180
   38.110      181
   38.125      164
   38.140      173
   38.155      194
   38.170      186
   38.185      185
   38.200      202
   38.215      178
   38.230      177
   38.245      175
   38.260      181
   38.275      187
   38.290      178
   38.305      174
   38.320      178
   38.335      174
   38.350      162
   38.365      166
   38.380      185
   38.395      191
   38.410      176
   38.425      191
   38.440      189
   38.455      179
   38.470      183
   38.485      179
   38.500      178
   38.515      176
   38.530      171
   38.545      162
   38.560      165
   38.575      157
   38.590      159
   38.605      165
   38.620      157
   38.635      183
   38.650      178
   38.665      171
   38.680      166
   38.695      160
   38.710      142
   38.725      171
   38.740      155
   38.755      173
   38.770      164
   38.785      151
   38.800      140
   38.815      140
   38.830      141
   38.845      131
   38.860      157
   38.875      146
   38.890      149
   38.905      156
   38.920      159
   38.935      156
   38.950      146
   38.965      140
   38.980      142
   38.995      148
   39.010      166
   39.025      147
   39.040      165
   39.055      130
   39.070      156
   39.085      162
   39.100      146
   39.115      158
   39.130      163
   39.145      177
   39.160      153
   39.175      153
   39.190      162
   39.205      164
   39.220      180
   39.235      172
   39.250      171
   39.265      168
   39.280      174
   39.295      174
   39.310      179
   39.325      181
   39.340      190
   39.355      171
   39.370      179
   39.385      167
   39.400      166
   39.415      169
   39.430      147
   39.445      149
   39.460      164
   39.475      152
   39.490      177
   39.505      159
   39.520      149
   39.535      143
   39.550      153
   39.565      151
   39.580      139
   39.595      158
   39.610      162
   39.625      165
   39.640      180
   39.655      164
   39.670      178
   39.685      156
   39.700      148
   39.715      146
   39.730      134
   39.745      146
   39.760      141
   39.775      138
   39.790      164
   39.805      136
   39.820      159
   39.835      151
   39.850      157
   39.865      163
   39.880      165
   39.895      159
   39.910      165
   39.925      169
   39.940      182
   39.955      190
   39.970      209
   39.985      201
   40.000      184
   40.015      173
   40.030      170
   40.045      187
   40.060      179
   40.075      161
   40.090      155
   40.105      154
   40.120      158
   40.135      179
   40.150      178
   40.165      167
   40.180      193
   40.195      190
   40.210      187
   40.225      208
   40.240      173
   40.255      186
   40.270      167
   40.285      183
   40.300      194
   40.315      168
   40.330      174
   40.345      178
   40.360      146
   40.375      159
   40.390      157
   40.405      127
   40.420      138
   40.435      148
   40.450      138
   40.465      117
   40.480      134
   40.495      159
   40.510      147
   40.525      142
   40.540      133
   40.555      158
   40.570      150
   40.585      164
   40.600      139
   40.615      145
   40.630      146
   40.645      154
   40.660      144
   40.675      155
   40.690      115
   40.705      139
   40.720      121
   40.735      138
   40.750      154
   40.765      147
   40.780      151
   40.795      143
   40.810      131
   40.825      128
   40.840      141
   40.855      158
   40.870      148
   40.885      128
   40.900      137
   40.915      138
   40.930      137
   40.945      140
   40.960      147
   40.975      143
   40.990      148
   41.005      144
   41.020      163
   41.035      155
   41.050      150
   41.065      147
   41.080      149
   41.095      148
   41.110      137
   41.125      134
   41.140      144
   41.155      149
   41.170      142
   41.185      149
   41.200      164
   41.215      156
   41.230      153
   41.245      155
   41.260      168
   41.275      151
   41.290      150
   41.305      166
   41.320      173
   41.335      156
   41.350      153
   41.365      160
   41.380      152
   41.395      130
   41.410      134
   41.425      140
   41.440      139
   41.455      155
   41.470      169
   41.485      154
   41.500      170
   41.515      167
   41.530      183
   41.545      167
   41.560      159
   41.575      181
   41.590      166
   41.605      177
   41.620      163
   41.635      162
   41.650      152
   41.665      147
   41.680      158
   41.695      163
   41.710      141
   41.725      150
   41.740      144
   41.755      145
   41.770      142
   41.785      148
   41.800      162
   41.815      158
   41.830      152
   41.845      160
   41.860      148
   41.875      149
   41.890      145
   41.905      150
   41.920      151
   41.935      150
   41.950      146
   41.965      131
   41.980      143
   41.995      148
   42.010      136
   42.025      143
   42.040      131
   42.055      141
   42.070      147
   42.085      139
   42.100      129
   42.115      138
   42.130      140
   42.145      136
   42.160      160
   42.175      155
   42.190      158
   42.205      157
   42.220      166
   42.235      176
   42.250      168
   42.265      147
   42.280      143
   42.295      159
   42.310      162
   42.325      140
   42.340      129
   42.355      145
   42.370      134
   42.385      138
   42.400      129
   42.415      151
   42.430      133
   42.445      148
   42.460      152
   42.475      164
   42.490      157
   42.505      161
   42.520      156
   42.535      161
   42.550      161
   42.565      168
   42.580      166
   42.595      151
   42.610      148
   42.625      155
   42.640      132
   42.655      146
   42.670      138
   42.685      147
   42.700      140
   42.715      167
   42.730      139
   42.745      125
   42.760      132
   42.775      145
   42.790      139
   42.805      139
   42.820      122
   42.835      143
   42.850      133
   42.865      143
   42.880      116
   42.895      138
   42.910      149
   42.925      155
   42.940      137
   42.955      138
   42.970      125
   42.985      129
   43.000      131
   43.015      139
   43.030      126
   43.045      150
   43.060      147
   43.075      136
   43.090      145
   43.105      123
   43.120      126
   43.135      162
   43.150      138
   43.165      136
   43.180      149
   43.195      143
   43.210      118
   43.225      145
   43.240      163
   43.255      151
   43.270      148
   43.285      146
   43.300      135
   43.315      127
   43.330      127
   43.345      147
   43.360      172
   43.375      121
   43.390      143
   43.405      125
   43.420      130
   43.435      121
   43.450      126
   43.465      157
   43.480      140
   43.495      119
   43.510      148
   43.525      153
   43.540      142
   43.555      156
   43.570      160
   43.585      170
   43.600      162
   43.615      165
   43.630      161
   43.645      145
   43.660      156
   43.675      156
   43.690      166
   43.705      162
   43.720      135
   43.735      134
   43.750      130
   43.765      135
   43.780      147
   43.795      142
   43.810      138
   43.825      146
   43.840      161
   43.855      171
   43.870      165
   43.885      158
   43.900      147
   43.915      157
   43.930      158
   43.945      149
   43.960      139
   43.975      160
   43.990      155
   44.005      149
   44.020      124
   44.035      146
   44.050      141
   44.065      149
   44.080      128
   44.095      143
   44.110      152
   44.125      158
   44.140      166
   44.155      162
   44.170      172
   44.185      171
   44.200      176
   44.215      166
   44.230      158
   44.245      165
   44.260      152
   44.275      134
   44.290      138
   44.305      152
   44.320      161
   44.335      160
   44.350      162
   44.365      164
   44.380      164
   44.395      163
   44.410      177
   44.425      170
   44.440      174
   44.455      170
   44.470      161
   44.485      176
   44.500      181
   44.515      172
   44.530      169
   44.545      171
   44.560      173
   44.575      179
   44.590      155
   44.605      159
   44.620      161
   44.635      164
   44.650      159
   44.665      150
   44.680      157
   44.695      159
   44.710      151
   44.725      151
   44.740      143
   44.755      156
   44.770      121
   44.785      119
   44.800      147
   44.815      147
   44.830      148
   44.845      131
   44.860      147
   44.875      148
   44.890      146
   44.905      142
   44.920      157
   44.935      151
   44.950      154
   44.965      161
   44.980      144
   44.995      147
   45.010      138
   45.025      123
   45.040      151
   45.055      150
   45.070      173
   45.085      145
   45.100      143
   45.115      144
   45.130      138
   45.145      144
   45.160      141
   45.175      133
   45.190      128
   45.205      139
   45.220      145
   45.235      112
   45.250      132
   45.265      133
   45.280      138
   45.295      140
   45.310      136
   45.325      141
   45.340      141
   45.355      151
   45.370      152
   45.385      150
   45.400      136
   45.415      137
   45.430      115
   45.445      142
   45.460      147
   45.475      141
   45.490      148
   45.505      144
   45.520      155
   45.535      163
   45.550      150
   45.565      132
   45.580      153
   45.595      135
   45.610      138
   45.625      157
   45.640      136
   45.655      150
   45.670      151
   45.685      138
   45.700      146
   45.715      136
   45.730      132
   45.745      143
   45.760      140
   45.775      141
   45.790      146
   45.805      144
   45.820      134
   45.835      148
   45.850      129
   45.865      147
   45.880      133
   45.895      145
   45.910      119
   45.925      126
   45.940      150
   45.955      165
   45.970      150
   45.985      146
