    4.000       51
    4.015       61
    4.030       51
    4.045       49
    4.060       51
    4.075       40
    4.090       47
    4.105       55
    4.120       45
    4.135       44
    4.150       52
    4.165       48
    4.180       44
    4.195       58
    4.210       62
    4.225       52
    4.240       44
    4.255       40
    4.270       46
    4.285       47
    4.300       53
    4.315       52
    4.330       44
    4.345       39
    4.360       49
    4.375       53
    4.390       50
    4.405       47
    4.420       47
    4.435       47
    4.450       42
    4.465       41
    4.480       38
    4.495       49
    4.510       55
    4.525       57
    4.540       47
    4.555       46
    4.570       50
    4.585       53
    4.600       50
    4.615       60
    4.630       54
    4.645       48
    4.660       47
    4.675       45
    4.690       41
    4.705       51
    4.720       57
    4.735       56
    4.750       48
    4.765       42
    4.780       47
    4.795       51
    4.810       33
    4.825       42
    4.840       41
    4.855       47
    4.870       47
    4.885       42
    4.900       52
    4.915       49
    4.930       44
    4.945       41
    4.960       48
    4.975       53
    4.990       45
    5.005       43
    5.020       43
    5.035       48
    5.050       41
    5.065       46
    5.080       52
    5.095       48
    5.110       46
    5.125       56
    5.140       48
    5.155       43
    5.170       51
    5.185       43
    5.200       49
    5.215       48
    5.230       35
    5.245       45
    5.260       47
    5.275       41
    5.290       45
    5.305       50
    5.320       45
    5.335       45
    5.350       43
    5.365       49
    5.380       43
    5.395       45
    5.410       51
    5.425       45
    5.440       49
    5.455       41
    5.470       44
    5.485       38
    5.500       43
    5.515       48
    5.530       48
    5.545       48
    5.560       42
    5.575       47
    5.590       47
    5.605       42
    5.620       49
    5.635       44
    5.650       38
    5.665       36
    5.680       43
    5.695       32
    5.710       36
    5.725       35
    5.740       40
    5.755       43
    5.770       45
    5.785       44
    5.800       47
    5.815       42
    5.830       52
    5.845       48
    5.860       41
    5.875       50
    5.890       51
    5.905       33
    5.920       45
    5.935       39
    5.950       49
    5.965       42
    5.980       42
    5.995       46
    6.010       35
    6.025       35
    6.040       44
    6.055       40
    6.070       50
    6.085       37
    6.100       50
    6.115       42
    6.130       47
    6.145       42
    6.160       38
    6.175       54
    6.190       45
    6.205       42
    6.220       50
    6.235       45
    6.250       51
    6.265       52
    6.280       55
    6.295       50
    6.310       61
    6.325       72
    6.340       60
    6.355       76
    6.370       82
    6.385       76
    6.400       74
    6.415       93
    6.430      107
    6.445      112
    6.460      107
    6.475      130
    6.490      133
    6.505      141
    6.520      161
    6.535      147
    6.550      166
    6.565      198
    6.580      182
    6.595      228
    6.610      272
    6.625      350
    6.640      368
    6.655      333
    6.670      331
    6.685      333
    6.700      317
    6.715      220
    6.730      141
    6.745       71
    6.760       51
    6.775       43
    6.790       46
    6.805       36
    6.820       49
    6.835       42
    6.850       48
    6.865       50
    6.880       50
    6.895       49
    6.910       51
    6.925       42
    6.940       42
    6.955       56
    6.970       42
    6.985       51
    7.000       53
    7.015       55
    7.030       61
    7.045       45
    7.060       39
    7.075       55
    7.090       47
    7.105       55
    7.120       65
    7.135       73
    7.150       68
    7.165       68
    7.180       78
    7.195      103
    7.210      106
    7.225      107
    7.240      100
    7.255       67
    7.270       62
    7.285       52
    7.300       33
    7.315       33
    7.330       45
    7.345       43
    7.360       31
    7.375       31
    7.390       44
    7.405       43
    7.420       48
    7.435       45
    7.450       48
    7.465       41
    7.480       42
    7.495       36
    7.510       43
    7.525       46
    7.540       41
    7.555       43
    7.570       47
    7.585       42
    7.600       37
    7.615       44
    7.630       44
    7.645       41
    7.660       45
    7.675       49
    7.690       53
    7.705       52
    7.720       51
    7.735       44
    7.750       43
    7.765       41
    7.780       43
    7.795       42
    7.810       36
    7.825       48
    7.840       53
    7.855       49
    7.870       41
    7.885       32
    7.900       38
    7.915       38
    7.930       35
    7.945       37
    7.960       44
    7.975       45
    7.990       38
    8.005       36
    8.020       30
    8.035       34
    8.050       33
    8.065       32
    8.080       45
    8.095       50
    8.110       41
    8.125       52
    8.140       51
    8.155       42
    8.170       35
    8.185       31
    8.200       37
    8.215       45
    8.230       38
    8.245       41
    8.260       42
    8.275       44
    8.290       48
    8.305       46
    8.320       43
    8.335       38
    8.350       33
    8.365       42
    8.380       41
    8.395       33
    8.410       46
    8.425       45
    8.440       36
    8.455       26
    8.470       34
    8.485       43
    8.500       41
    8.515       46
    8.530       48
    8.545       41
    8.560       41
    8.575       47
    8.590       51
    8.605       45
    8.620       54
    8.635       49
    8.650       34
    8.665       36
    8.680       45
    8.695       48
    8.710       45
    8.725       54
    8.740       38
    8.755       45
    8.770       46
    8.785       38
    8.800       35
    8.815       44
    8.830       44
    8.845       33
    8.860       31
    8.875       49
    8.890       38
    8.905       50
    8.920       43
    8.935       44
    8.950       45
    8.965       41
    8.980       41
    8.995       41
    9.010       30
    9.025       36
    9.040       43
    9.055       37
    9.070       39
    9.085       45
    9.100       38
    9.115       46
    9.130       42
    9.145       43
    9.160       44
    9.175       38
    9.190       41
    9.205       48
    9.220       46
    9.235       45
    9.250       55
    9.265       46
    9.280       47
    9.295       40
    9.310       45
    9.325       40
    9.340       51
    9.355       42
    9.370       57
    9.385       50
    9.400       38
    9.415       42
    9.430       44
    9.445       35
    9.460       37
    9.475       42
    9.490       45
    9.505       43
    9.520       34
    9.535       35
    9.550       41
    9.565       58
    9.580       47
    9.595       48
    9.610       44
    9.625       44
    9.640       43
    9.655       54
    9.670       47
    9.685       49
    9.700       41
    9.715       39
    9.730       41
    9.745       41
    9.760       39
    9.775       44
    9.790       48
    9.805       54
    9.820       39
    9.835       52
    9.850       44
    9.865       55
    9.880       47
    9.895       38
    9.910       47
    9.925       49
    9.940       41
    9.955       40
    9.970       39
    9.985       47
   10.000       43
   10.015       38
   10.030       48
   10.045       40
   10.060       42
   10.075       40
   10.090       40
   10.105       42
   10.120       32
   10.135       40
   10.150       47
   10.165       52
   10.180       48
   10.195       58
   10.210       52
   10.225       51
   10.240       46
   10.255       51
   10.270       50
   10.285       43
   10.300       39
   10.315       49
   10.330       44
   10.345       37
   10.360       46
   10.375       54
   10.390       48
   10.405       58
   10.420       56
   10.435       66
   10.450       65
   10.465       53
   10.480       69
   10.495       76
   10.510       73
   10.525       94
   10.540       89
   10.555       66
   10.570       72
   10.585       64
   10.600       58
   10.615       46
   10.630       51
   10.645       46
   10.660       46
   10.675       50
   10.690       72
   10.705       63
   10.720       73
   10.735       78
   10.750       89
   10.765       92
   10.780      109
   10.795      115
   10.810      113
   10.825      129
   10.840      130
   10.855      145
   10.870      154
   10.885      157
   10.900      222
   10.915      244
   10.930      212
   10.945      164
   10.960      111
   10.975       72
   10.990       55
   11.005       41
   11.020       42
   11.035       54
   11.050       58
   11.065       47
   11.080       49
   11.095       40
   11.110       44
   11.125       48
   11.140       41
   11.155       41
   11.170       42
   11.185       54
   11.200       60
   11.215       55
   11.230       58
   11.245       50
   11.260       67
   11.275       84
   11.290       89
   11.305       80
   11.320       60
   11.335       54
   11.350       37
   11.365       45
   11.380       51
   11.395       56
   11.410       54
   11.425       45
   11.440       42
   11.455       50
   11.470       49
   11.485       65
   11.500       61
   11.515       57
   11.530       49
   11.545       42
   11.560       33
   11.575       37
   11.590       34
   11.605       39
   11.620       41
   11.635       47
   11.650       40
   11.665       33
   11.680       39
   11.695       44
   11.710       50
   11.725       53
   11.740       44
   11.755       62
   11.770       65
   11.785       54
   11.800       67
   11.815       72
   11.830       86
   11.845       71
   11.860       56
   11.875       55
   11.890       55
   11.905       54
   11.920       66
   11.935       70
   11.950       60
   11.965       57
   11.980       51
   11.995       51
   12.010       38
   12.025       42
   12.040       47
   12.055       52
   12.070       55
   12.085       55
   12.100       68
   12.115       72
   12.130       57
   12.145       50
   12.160       44
   12.175       42
   12.190       43
   12.205       37
   12.220       47
   12.235       48
   12.250       43
   12.265       39
   12.280       45
   12.295       44
   12.310       42
   12.325       30
   12.340       32
   12.355       45
   12.370       41
   12.385       32
   12.400       35
   12.415       39
   12.430       41
   12.445       50
   12.460       41
   12.475       53
   12.490       48
   12.505       42
   12.520       41
   12.535       45
   12.550       47
   12.565       62
   12.580       64
   12.595       73
   12.610       70
   12.625       85
   12.640       99
   12.655      121
   12.670      127
   12.685      136
   12.700      176
   12.715      222
   12.730      266
   12.745      289
   12.760      266
   12.775      209
   12.790      186
   12.805      187
   12.820      175
   12.835      143
   12.850      123
   12.865       93
   12.880       60
   12.895       55
   12.910       48
   12.925       46
   12.940       64
   12.955       62
   12.970       58
   12.985       66
   13.000       76
   13.015       79
   13.030       86
   13.045      109
   13.060      124
   13.075      149
   13.090      158
   13.105      217
   13.120      226
   13.135      224
   13.150      189
   13.165      160
   13.180      141
   13.195      152
   13.210      184
   13.225      255
   13.240      220
   13.255      271
   13.270      340
   13.285      376
   13.300      487
   13.315      577
   13.330      538
   13.345      492
   13.360      455
   13.375      488
   13.390      638
   13.405      790
   13.420     1063
   13.435      962
   13.450      671
   13.465      418
   13.480      227
   13.495      124
   13.510      103
   13.525      105
   13.540      108
   13.555      114
   13.570      118
   13.585      122
   13.600      142
   13.615      174
   13.630      207
   13.645      252
   13.660      246
   13.675      276
   13.690      301
   13.705      287
   13.720      215
   13.735      165
   13.750       81
   13.765       66
   13.780       64
   13.795       55
   13.810       50
   13.825       45
   13.840       52
   13.855       51
   13.870       53
   13.885       61
   13.900       64
   13.915       72
   13.930       82
   13.945       91
   13.960       71
   13.975       55
   13.990       51
   14.005       48
   14.020       51
   14.035       42
   14.050       38
   14.065       42
   14.080       47
   14.095       37
   14.110       37
   14.125       39
   14.140       46
   14.155       46
   14.170       47
   14.185       46
   14.200       57
   14.215       72
   14.230       59
   14.245       56
   14.260       63
   14.275       72
   14.290       81
   14.305      119
   14.320      126
   14.335      142
   14.350      175
   14.365      177
   14.380      162
   14.395      174
   14.410      174
   14.425      167
   14.440      141
   14.455      150
   14.470      155
   14.485      159
   14.500      158
   14.515      138
   14.530      141
   14.545      151
   14.560      178
   14.575      201
   14.590      220
   14.605      271
   14.620      320
   14.635      289
   14.650      192
   14.665      118
   14.680       77
   14.695       52
   14.710       55
   14.725       47
   14.740       46
   14.755       49
   14.770       45
   14.785       45
   14.800       53
   14.815       39
   14.830       37
   14.845       50
   14.860       37
   14.875       37
   14.890       42
   14.905       38
   14.920       48
   14.935       48
   14.950       48
   14.965       52
   14.980       51
   14.995       75
   15.010       76
   15.025       81
   15.040       89
   15.055      130
   15.070      150
   15.085      194
   15.100      235
   15.115      278
   15.130      354
   15.145      413
   15.160      454
   15.175      540
   15.190      666
   15.205      764
   15.220      710
   15.235      571
   15.250      361
   15.265      221
   15.280      162
   15.295      126
   15.310      145
   15.325      127
   15.340      112
   15.355      122
   15.370      140
   15.385      140
   15.400      160
   15.415      197
   15.430      204
   15.445      183
   15.460      180
   15.475      176
   15.490      170
   15.505      154
   15.520      144
   15.535      120
   15.550      109
   15.565      128
   15.580      150
   15.595      158
   15.610      190
   15.625      223
   15.640      260
   15.655      251
   15.670      243
   15.685      284
   15.700      359
   15.715      348
   15.730      296
   15.745      227
   15.760      173
   15.775      140
   15.790      134
   15.805      168
   15.820      198
   15.835      212
   15.850      192
   15.865      220
   15.880      235
   15.895      276
   15.910      247
   15.925      212
   15.940      175
   15.955      119
   15.970       71
   15.985       56
   16.000       40
   16.015       37
   16.030       43
   16.045       59
   16.060       62
   16.075       64
   16.090       58
   16.105       65
   16.120       80
   16.135       92
   16.150      103
   16.165      144
   16.180      174
   16.195      174
   16.210      225
   16.225      265
   16.240      265
   16.255      262
   16.270      276
   16.285      244
   16.300      179
   16.315      143
   16.330       95
   16.345       78
   16.360       85
   16.375       88
   16.390      116
   16.405      140
   16.420      139
   16.435      145
   16.450      143
   16.465      148
   16.480      172
   16.495      175
   16.510      237
   16.525      309
   16.540      400
   16.555      492
   16.570      444
   16.585      360
   16.600      283
   16.615      242
   16.630      244
   16.645      305
   16.660      340
   16.675      387
   16.690      355
   16.705      326
   16.720      286
   16.735      270
   16.750      235
   16.765      223
   16.780      233
   16.795      252
   16.810      264
   16.825      265
   16.840      295
   16.855      287
   16.870      279
   16.885      291
   16.900      293
   16.915      304
   16.930      309
   16.945      248
   16.960      216
   16.975      142
   16.990      113
   17.005       79
   17.020       91
   17.035      110
   17.050      112
   17.065      141
   17.080      162
   17.095      189
   17.110      225
   17.125      268
   17.140      262
   17.155      250
   17.170      207
   17.185      180
   17.200      145
   17.215      142
   17.230      150
   17.245      162
   17.260      213
   17.275      261
   17.290      307
   17.305      344
   17.320      390
   17.335      436
   17.350      454
   17.365      393
   17.380      318
   17.395      212
   17.410      150
   17.425      142
   17.440      120
   17.455      125
   17.470      138
   17.485      112
   17.500       94
   17.515       84
   17.530       97
   17.545      123
   17.560      129
   17.575      150
   17.590      201
   17.605      244
   17.620      243
   17.635      228
   17.650      192
   17.665      145
   17.680       81
   17.695       61
   17.710       72
   17.725       77
   17.740       78
   17.755       85
   17.770       94
   17.785      105
   17.800      104
   17.815       91
   17.830       76
   17.845       69
   17.860       79
   17.875       99
   17.890      107
   17.905      112
   17.920       92
   17.935       77
   17.950       78
   17.965       74
   17.980       63
   17.995       49
   18.010       41
   18.025       51
   18.040       58
   18.055       61
   18.070       48
   18.085       44
   18.100       49
   18.115       43
   18.130       49
   18.145       42
   18.160       36
   18.175       35
   18.190       39
   18.205       42
   18.220       37
   18.235       38
   18.250       36
   18.265       49
   18.280       58
   18.295       69
   18.310       74
   18.325       81
   18.340       95
   18.355      112
   18.370      152
   18.385      173
   18.400      194
   18.415      200
   18.430      233
   18.445      225
   18.460      168
   18.475      137
   18.490      119
   18.505       83
   18.520       70
   18.535       64
   18.550       57
   18.565       56
   18.580       63
   18.595       58
   18.610       62
   18.625       69
   18.640       74
   18.655       72
   18.670       92
   18.685      116
   18.700      128
   18.715      154
   18.730      164
   18.745      151
   18.760      134
   18.775      143
   18.790      150
   18.805      156
   18.820      133
   18.835      129
   18.850       76
   18.865       67
   18.880       78
   18.895       66
   18.910       67
   18.925       65
   18.940       63
   18.955       50
   18.970       49
   18.985       72
   19.000       85
   19.015       94
   19.030       76
   19.045       94
   19.060       87
   19.075       82
   19.090       88
   19.105       92
   19.120      100
   19.135       92
   19.150       76
   19.165       66
   19.180       47
   19.195       52
   19.210       51
   19.225       48
   19.240       56
   19.255       50
   19.270       49
   19.285       41
   19.300       38
   19.315       38
   19.330       37
   19.345       45
   19.360       54
   19.375       40
   19.390       55
   19.405       43
   19.420       50
   19.435       45
   19.450       50
   19.465       56
   19.480       56
   19.495       70
   19.510       67
   19.525       76
   19.540       81
   19.555      102
   19.570      100
   19.585       88
   19.600       86
   19.615       79
   19.630       77
   19.645       65
   19.660       67
   19.675       66
   19.690       93
   19.705      117
   19.720      137
   19.735      149
   19.750      160
   19.765      163
   19.780      155
   19.795      130
   19.810      122
   19.825       98
   19.840       89
   19.855       76
   19.870       79
   19.885       77
   19.900       81
   19.915       88
   19.930      111
   19.945      147
   19.960      186
   19.975      225
   19.990      257
   20.005      337
   20.020      452
   20.035      536
   20.050      525
   20.065      450
   20.080      340
   20.095      274
   20.110      244
   20.125      229
   20.140      233
   20.155      257
   20.170      277
   20.185      245
   20.200      205
   20.215      158
   20.230      138
   20.245       92
   20.260       66
   20.275       62
   20.290       49
   20.305       52
   20.320       66
   20.335       85
   20.350       93
   20.365       83
   20.380       98
   20.395       82
   20.410       60
   20.425       56
   20.440       52
   20.455       56
   20.470       43
   20.485       44
   20.500       49
   20.515       45
   20.530       48
   20.545       40
   20.560       42
   20.575       37
   20.590       43
   20.605       40
   20.620       49
   20.635       52
   20.650       53
   20.665       53
   20.680       67
   20.695       86
   20.710       96
   20.725       82
   20.740       79
   20.755       69
   20.770       56
   20.785       58
   20.800       53
   20.815       73
   20.830       63
   20.845       78
   20.860       85
   20.875      123
   20.890      126
   20.905      182
   20.920      175
   20.935      162
   20.950      151
   20.965      147
   20.980      124
   20.995      152
   21.010      160
   21.025      170
   21.040      140
   21.055      106
   21.070       95
   21.085       78
   21.100       68
   21.115       53
   21.130       43
   21.145       48
   21.160       43
   21.175       41
   21.190       51
   21.205       40
   21.220       41
   21.235       45
   21.250       34
   21.265       38
   21.280       51
   21.295       59
   21.310       53
   21.325       67
   21.340       58
   21.355       79
   21.370       86
   21.385       91
   21.400      103
   21.415       96
   21.430       83
   21.445       75
   21.460       54
   21.475       52
   21.490       49
   21.505       56
   21.520       40
   21.535       29
   21.550       31
   21.565       39
   21.580       47
   21.595       44
   21.610       49
   21.625       53
   21.640       55
   21.655       56
   21.670       63
   21.685       84
   21.700       92
   21.715      112
   21.730      137
   21.745      175
   21.760      175
   21.775      163
   21.790      138
   21.805      124
   21.820      117
   21.835      124
   21.850      121
   21.865      150
   21.880      192
   21.895      261
   21.910      309
   21.925      439
   21.940      486
   21.955      435
   21.970      327
   21.985      245
   22.000      173
   22.015      120
   22.030      120
   22.045      108
   22.060       99
   22.075       79
   22.090       74
   22.105       70
   22.120       76
   22.135       57
   22.150       59
   22.165       45
   22.180       46
   22.195       45
   22.210       41
   22.225       44
   22.240       46
   22.255       53
   22.270       52
   22.285       44
   22.300       56
   22.315       48
   22.330       43
   22.345       43
   22.360       56
   22.375       46
   22.390       55
   22.405       56
   22.420       65
   22.435       82
   22.450       75
   22.465       78
   22.480       84
   22.495       94
   22.510      103
   22.525      105
   22.540      105
   22.555      106
   22.570       86
   22.585       75
   22.600       66
   22.615       50
   22.630       56
   22.645       56
   22.660       59
   22.675       76
   22.690       85
   22.705      100
   22.720      103
   22.735      104
   22.750      113
   22.765      113
   22.780      137
   22.795      135
   22.810      124
   22.825      104
   22.840       92
   22.855       98
   22.870       82
   22.885       71
   22.900       90
   22.915      112
   22.930      123
   22.945      143
   22.960      154
   22.975      144
   22.990      149
   23.005      134
   23.020      125
   23.035      129
   23.050      117
   23.065       77
   23.080       70
   23.095       53
   23.110       54
   23.125       53
   23.140       51
   23.155       53
   23.170       53
   23.185       67
   23.200       66
   23.215       70
   23.230       67
   23.245       72
   23.260       76
   23.275       74
   23.290       78
   23.305       85
   23.320      104
   23.335      103
   23.350      113
   23.365      111
   23.380       87
   23.395       58
   23.410       44
   23.425       41
   23.440       42
   23.455       47
   23.470       53
   23.485       55
   23.500       55
   23.515       66
   23.530       61
   23.545       58
   23.560       64
   23.575       62
   23.590       53
   23.605       46
   23.620       57
   23.635       47
   23.650       49
   23.665       60
   23.680       61
   23.695       50
   23.710       70
   23.725       59
   23.740       72
   23.755       79
   23.770       64
   23.785       66
   23.800       63
   23.815       52
   23.830       47
   23.845       48
   23.860       41
   23.875       35
   23.890       42
   23.905       45
   23.920       48
   23.935       49
   23.950       48
   23.965       59
   23.980       79
   23.995       52
   24.010       57
   24.025       42
   24.040       62
   24.055       64
   24.070       55
   24.085       57
   24.100       71
   24.115       81
   24.130       99
   24.145      102
   24.160      108
   24.175       73
   24.190       52
   24.205       53
   24.220       51
   24.235       45
   24.250       40
   24.265       48
   24.280       49
   24.295       56
   24.310       59
   24.325       57
   24.340       63
   24.355       66
   24.370       88
   24.385       85
   24.400       91
   24.415       89
   24.430       84
   24.445       68
   24.460       53
   24.475       53
   24.490       55
   24.505       40
   24.520       43
   24.535       47
   24.550       50
   24.565       45
   24.580       50
   24.595       47
   24.610       46
   24.625       52
   24.640       50
   24.655       54
   24.670       61
   24.685       69
   24.700       71
   24.715       90
   24.730       86
   24.745       96
   24.760       89
   24.775       88
   24.790       76
   24.805       88
   24.820       67
   24.835       56
   24.850       61
   24.865       61
   24.880       60
   24.895       55
   24.910       53
   24.925       53
   24.940       57
   24.955       57
   24.970       38
   24.985       44
   25.000       38
   25.015       51
   25.030       44
   25.045       57
   25.060       52
   25.075       84
   25.090       85
   25.105       91
   25.120       96
   25.135      110
   25.150      105
   25.165       89
   25.180       97
   25.195       77
   25.210       69
   25.225       62
   25.240       50
   25.255       48
   25.270       58
   25.285       54
   25.300       51
   25.315       56
   25.330       72
   25.345       82
   25.360       71
   25.375       76
   25.390       65
   25.405       54
   25.420       60
   25.435       57
   25.450       38
   25.465       41
   25.480       45
   25.495       64
   25.510       63
   25.525       71
   25.540       90
   25.555      109
   25.570      108
   25.585      118
   25.600      104
   25.615       75
   25.630       58
   25.645       51
   25.660       66
   25.675       51
   25.690       71
   25.705       68
   25.720       69
   25.735       68
   25.750       75
   25.765       93
   25.780      119
   25.795      150
   25.810      147
   25.825      171
   25.840      172
   25.855      170
   25.870      138
   25.885      119
   25.900      108
   25.915       94
   25.930       84
   25.945       78
   25.960       80
   25.975       85
   25.990      100
   26.005      124
   26.020      125
   26.035      137
   26.050      164
   26.065      140
   26.080      109
   26.095       96
   26.110       80
   26.125       73
   26.140       64
   26.155       80
   26.170       77
   26.185       62
   26.200       61
   26.215       63
   26.230       60
   26.245       68
   26.260       69
   26.275       70
   26.290       77
   26.305      101
   26.320      101
   26.335       97
   26.350      108
   26.365      101
   26.380       89
   26.395       72
   26.410       58
   26.425       58
   26.440       62
   26.455       55
   26.470       56
   26.485       58
   26.500       70
   26.515       65
   26.530       81
   26.545       70
   26.560       56
   26.575       51
   26.590       47
   26.605       42
   26.620       52
   26.635       53
   26.650       58
   26.665       65
   26.680       49
   26.695       48
   26.710       56
   26.725       50
   26.740       44
   26.755       57
   26.770       65
   26.785       65
   26.800       53
   26.815       93
   26.830      104
   26.845       91
   26.860       70
   26.875       61
   26.890       57
   26.905       48
   26.920       50
   26.935       49
   26.950       47
   26.965       53
   26.980       63
   26.995       87
   27.010       95
   27.025      121
   27.040      122
   27.055      139
   27.070      127
   27.085      129
   27.100      139
   27.115      136
   27.130      140
   27.145      139
   27.160      124
   27.175      109
   27.190      109
   27.205       81
   27.220       71
   27.235       65
   27.250       64
   27.265       66
   27.280       60
   27.295       47
   27.310       51
   27.325       64
   27.340       62
   27.355       69
   27.370       64
   27.385       75
   27.400       68
   27.415       65
   27.430       69
   27.445       70
   27.460       68
   27.475       63
   27.490       58
   27.505       66
   27.520       71
   27.535       74
   27.550       85
   27.565       82
   27.580       86
   27.595       81
   27.610       96
   27.625       98
   27.640      101
   27.655      100
   27.670      111
   27.685      117
   27.700      129
   27.715      138
   27.730      168
   27.745      192
   27.760      197
   27.775      194
   27.790      194
   27.805      174
   27.820      191
   27.835      133
   27.850      115
   27.865      115
   27.880      108
   27.895       79
   27.910       87
   27.925       91
   27.940       78
   27.955       84
   27.970       85
   27.985       84
   28.000       89
   28.015      108
   28.030      142
   28.045      113
   28.060      112
   28.075      127
   28.090      117
   28.105      108
   28.120       86
   28.135       78
   28.150       77
   28.165       82
   28.180       92
   28.195       85
   28.210       72
   28.225       69
   28.240       72
   28.255       71
   28.270       66
   28.285       78
   28.300       80
   28.315       68
   28.330       62
   28.345       60
   28.360       76
   28.375       62
   28.390       77
   28.405       80
   28.420       94
   28.435       98
   28.450       94
   28.465       89
   28.480       85
   28.495       97
   28.510       97
   28.525       97
   28.540       91
   28.555       92
   28.570       95
   28.585      107
   28.600       98
   28.615       78
   28.630       89
   28.645       79
   28.660       59
   28.675       46
   28.690       47
   28.705       43
   28.720       41
   28.735       46
   28.750       51
   28.765       52
   28.780       50
   28.795       59
   28.810       63
   28.825       78
   28.840       83
   28.855       74
   28.870       79
   28.885       67
   28.900       61
   28.915       51
   28.930       57
   28.945       73
   28.960       74
   28.975       68
   28.990       62
   29.005       64
   29.020       76
   29.035       93
   29.050       86
   29.065       86
   29.080       88
   29.095       97
   29.110       94
   29.125      105
   29.140      100
   29.155       98
   29.170      104
   29.185       95
   29.200      103
   29.215      114
   29.230      125
   29.245      112
   29.260      107
   29.275       91
   29.290       85
   29.305       84
   29.320       84
   29.335       80
   29.350       73
   29.365       73
   29.380       77
   29.395       86
   29.410       79
   29.425       74
   29.440       76
   29.455       71
   29.470       65
   29.485       51
   29.500       69
   29.515       66
   29.530       62
   29.545       60
   29.560       49
   29.575       51
   29.590       49
   29.605       59
   29.620       46
   29.635       62
   29.650       68
   29.665       72
   29.680       88
   29.695       98
   29.710       82
   29.725       94
   29.740      107
   29.755      111
   29.770      106
   29.785       83
   29.800       87
   29.815       93
   29.830       97
   29.845      109
   29.860      114
   29.875      112
   29.890      103
   29.905      113
   29.920      101
   29.935       95
   29.950       87
   29.965       76
   29.980       68
   29.995       69
   30.010       68
   30.025       73
   30.040       60
   30.055       55
   30.070       54
   30.085       60
   30.100       52
   30.115       45
   30.130       54
   30.145       54
   30.160       40
   30.175       50
   30.190       51
   30.205       46
   30.220       52
   30.235       41
   30.250       47
   30.265       46
   30.280       48
   30.295       38
   30.310       48
   30.325       48
   30.340       51
   30.355       50
   30.370       54
   30.385       45
   30.400       50
   30.415       44
   30.430       48
   30.445       58
   30.460       70
   30.475       52
   30.490       60
   30.505       56
   30.520       50
   30.535       39
   30.550       63
   30.565       56
   30.580       65
   30.595       57
   30.610       56
   30.625       53
   30.640       50
   30.655       69
   30.670       62
   30.685       57
   30.700       83
   30.715      102
   30.730       95
   30.745      109
   30.760       85
   30.775       84
   30.790       95
   30.805      100
   30.820      105
   30.835       91
   30.850       94
   30.865       93
   30.880       80
   30.895       87
   30.910       74
   30.925       63
   30.940       47
   30.955       55
   30.970       48
   30.985       56
   31.000       55
   31.015       46
   31.030       53
   31.045       58
   31.060       62
   31.075       55
   31.090       69
   31.105       83
   31.120       81
   31.135       92
   31.150       91
   31.165       87
   31.180       89
   31.195       96
   31.210      101
   31.225       89
   31.240       60
   31.255       61
   31.270       70
   31.285       57
   31.300       67
   31.315       69
   31.330       57
   31.345       54
   31.360       53
   31.375       58
   31.390       59
   31.405       72
   31.420       71
   31.435       79
   31.450       69
   31.465       79
   31.480       79
   31.495       82
   31.510       70
   31.525       76
   31.540       81
   31.555       70
   31.570       70
   31.585       68
   31.600       67
   31.615       78
   31.630       76
   31.645       72
   31.660       69
   31.675       68
   31.690       59
   31.705       83
   31.720       82
   31.735       88
   31.750       89
   31.765       87
   31.780      117
   31.795       98
   31.810       88
   31.825       85
   31.840       80
   31.855       83
   31.870       85
   31.885       90
   31.900       84
   31.915       96
   31.930       98
   31.945       98
   31.960       88
   31.975       96
   31.990       89
   32.005       87
   32.020       78
   32.035       78
   32.050      103
   32.065      101
   32.080       97
   32.095       93
   32.110       86
   32.125       95
   32.140       83
   32.155       81
   32.170       92
   32.185       86
   32.200       83
   32.215       80
   32.230       73
   32.245       62
   32.260       70
   32.275       75
   32.290       83
   32.305       93
   32.320       93
   32.335       93
   32.350       80
   32.365       68
   32.380       74
   32.395       71
   32.410       56
   32.425       47
   32.440       50
   32.455       63
   32.470       62
   32.485       56
   32.500       64
   32.515       54
   32.530       59
   32.545       69
   32.560       60
   32.575       71
   32.590       68
   32.605       62
   32.620       74
   32.635       70
   32.650       63
   32.665       56
   32.680       53
   32.695       45
   32.710       45
   32.725       62
   32.740       48
   32.755       49
   32.770       51
   32.785       49
   32.800       46
   32.815       46
   32.830       49
   32.845       60
   32.860       54
   32.875       51
   32.890       36
   32.905       49
   32.920       50
   32.935       44
   32.950       50
   32.965       47
   32.980       46
   32.995       44
   33.010       46
   33.025       53
   33.040       61
   33.055       55
   33.070       62
   33.085       54
   33.100       71
   33.115       73
   33.130       87
   33.145       86
   33.160       87
   33.175       77
   33.190       69
   33.205       88
   33.220       75
   33.235       58
   33.250       56
   33.265       65
   33.280       55
   33.295       54
   33.310       58
   33.325       61
   33.340       59
   33.355       55
   33.370       44
   33.385       52
   33.400       55
   33.415       58
   33.430       53
   33.445       51
   33.460       66
   33.475       57
   33.490       61
   33.505       48
   33.520       49
   33.535       61
   33.550       62
   33.565       58
   33.580       74
   33.595       67
   33.610       83
   33.625       74
   33.640       78
   33.655       81
   33.670       87
   33.685      130
   33.700      121
   33.715      118
   33.730      116
   33.745       90
   33.760       80
   33.775       87
   33.790       84
   33.805       85
   33.820       87
   33.835       76
   33.850       87
   33.865       75
   33.880       75
   33.895       73
   33.910       63
   33.925       65
   33.940       70
   33.955       90
   33.970       90
   33.985       82
   34.000       80
   34.015       95
   34.030       88
   34.045       97
   34.060       91
   34.075       67
   34.090       61
   34.105       61
   34.120       66
   34.135       68
   34.150       65
   34.165       69
   34.180       81
   34.195       84
   34.210       80
   34.225       75
   34.240       78
   34.255       89
   34.270       79
   34.285       84
   34.300       87
   34.315       76
   34.330       60
   34.345       68
   34.360       70
   34.375       61
   34.390       48
   34.405       46
   34.420       59
   34.435       45
   34.450       53
   34.465       49
   34.480       43
   34.495       46
   34.510       60
   34.525       41
   34.540       45
   34.555       44
   34.570       52
   34.585       51
   34.600       47
   34.615       44
   34.630       58
   34.645       61
   34.660       55
   34.675       55
   34.690       59
   34.705       61
   34.720       67
   34.735       68
   34.750       70
   34.765       71
   34.780       65
   34.795       60
   34.810       54
   34.825       47
   34.840       47
   34.855       35
   34.870       44
   34.885       48
   34.900       40
   34.915       47
   34.930       53
   34.945       50
   34.960       56
   34.975       56
   34.990       59
   35.005       81
   35.020       68
   35.035       62
   35.050       61
   35.065       65
   35.080       60
   35.095       54
   35.110       54
   35.125       56
   35.140       56
   35.155       59
   35.170       54
   35.185       50
   35.200       53
   35.215       54
   35.230       59
   35.245       64
   35.260       64
   35.275       64
   35.290       74
   35.305       64
   35.320       63
   35.335       65
   35.350       60
   35.365       64
   35.380       63
   35.395       61
   35.410       61
   35.425       64
   35.440       76
   35.455       70
   35.470       68
   35.485       76
   35.500       88
   35.515       80
   35.530       80
   35.545       80
   35.560       80
   35.575       77
   35.590       89
   35.605       85
   35.620       78
   35.635       86
   35.650      101
   35.665      103
   35.680       99
   35.695       91
   35.710       86
   35.725       94
   35.740       77
   35.755       93
   35.770       98
   35.785      118
   35.800       97
   35.815      101
   35.830       85
   35.845       89
   35.860      104
   35.875       60
   35.890       70
   35.905       59
   35.920       54
   35.935       66
   35.950       68
   35.965       53
   35.980       50
   35.995       51
   36.010       51
   36.025       62
   36.040       45
   36.055       48
   36.070       55
   36.085       49
   36.100       40
   36.115       35
   36.130       50
   36.145       46
   36.160       48
   36.175       44
   36.190       42
   36.205       43
   36.220       54
   36.235       46
   36.250       45
   36.265       54
   36.280       49
   36.295       47
   36.310       44
   36.325       55
   36.340       54
   36.355       50
   36.370       54
   36.385       50
   36.400       48
   36.415       55
   36.430       52
   36.445       49
   36.460       61
   36.475       68
   36.490       63
   36.505       64
   36.520       55
   36.535       52
   36.550       59
   36.565       58
   36.580       51
   36.595       51
   36.610       43
   36.625       38
   36.640       46
   36.655       42
   36.670       44
   36.685       59
   36.700       47
   36.715       45
   36.730       56
   36.745       46
   36.760       58
   36.775       58
   36.790       45
   36.805       55
   36.820       56
   36.835       53
   36.850       59
   36.865       53
   36.880       44
   36.895       47
   36.910       43
   36.925       52
   36.940       49
   36.955       50
   36.970       76
   36.985       74
   37.000       92
   37.015       76
   37.030       67
   37.045       68
   37.060       64
   37.075       52
   37.090       58
   37.105       50
   37.120       60
   37.135       60
   37.150       58
   37.165       47
   37.180       50
   37.195       55
   37.210       61
   37.225       67
   37.240       55
   37.255       60
   37.270       68
   37.285       59
   37.300       61
   37.315       54
   37.330       65
   37.345       79
   37.360       63
   37.375       61
   37.390       50
   37.405       56
   37.420       66
   37.435       65
   37.450       68
   37.465       76
   37.480       78
   37.495       70
   37.510       73
   37.525       65
   37.540       56
   37.555       44
   37.570       33
   37.585       45
   37.600       57
   37.615       42
   37.630       43
   37.645       32
   37.660       45
   37.675       53
   37.690       48
   37.705       38
   37.720       35
   37.735       49
   37.750       46
   37.765       40
   37.780       37
   37.795       41
   37.810       51
   37.825       62
   37.840       59
   37.855       46
   37.870       47
   37.885       57
   37.900       50
   37.915       58
   37.930       50
   37.945       42
   37.960       53
   37.975       53
   37.990       43
   38.005       56
   38.020       58
   38.035       54
   38.050       58
   38.065       55
   38.080       53
   38.095       57
   38.110       56
   38.125       48
   38.140       55
   38.155       49
   38.170       51
   38.185       58
   38.200       54
   38.215       49
   38.230       49
   38.245       58
   38.260       52
   38.275       57
   38.290       65
   38.305       55
   38.320       53
   38.335       48
   38.350       41
   38.365       42
   38.380       40
   38.395       43
   38.410       43
   38.425       55
   38.440       45
   38.455       50
   38.470       54
   38.485       59
   38.500       51
   38.515       44
   38.530       51
   38.545       50
   38.560       66
   38.575       69
   38.590       68
   38.605       84
   38.620       63
   38.635       79
   38.650       65
   38.665       52
   38.680       49
   38.695       50
   38.710       41
   38.725       50
   38.740       47
   38.755       51
   38.770       48
   38.785       48
   38.800       45
   38.815       50
   38.830       46
   38.845       60
   38.860       56
   38.875       57
   38.890       56
   38.905       53
   38.920       57
   38.935       56
   38.950       74
   38.965       63
   38.980       77
   38.995       54
   39.010       51
   39.025       62
   39.040       47
   39.055       58
   39.070       68
   39.085       53
   39.100       70
   39.115       65
   39.130       58
   39.145       62
   39.160       66
   39.175       70
   39.190       61
   39.205       60
   39.220       75
   39.235       57
   39.250       47
   39.265       56
   39.280       51
   39.295       57
   39.310       51
   39.325       58
   39.340       60
   39.355       50
   39.370       51
   39.385       52
   39.400       61
   39.415       61
   39.430       46
   39.445       41
   39.460       57
   39.475       42
   39.490       47
   39.505       55
   39.520       43
   39.535       46
   39.550       42
   39.565       44
   39.580       49
   39.595       56
   39.610       48
   39.625       41
   39.640       33
   39.655       37
   39.670       46
   39.685       36
   39.700       39
   39.715       36
   39.730       40
   39.745       42
   39.760       40
   39.775       44
   39.790       46
   39.805       43
   39.820       45
   39.835       55
   39.850       43
   39.865       45
   39.880       50
   39.895       53
   39.910       43
   39.925       41
   39.940       50
   39.955       48
   39.970       49
   39.985       54
   40.000       58
   40.015       73
   40.030       50
   40.045       63
   40.060       57
   40.075       60
   40.090       65
   40.105       80
   40.120       81
   40.135       82
   40.150       62
   40.165       68
   40.180       59
   40.195       51
   40.210       55
   40.225       48
   40.240       49
   40.255       49
   40.270       51
   40.285       56
   40.300       51
   40.315       49
   40.330       50
   40.345       46
   40.360       46
   40.375       55
   40.390       43
   40.405       56
   40.420       47
   40.435       50
   40.450       61
   40.465       65
   40.480       53
   40.495       54
   40.510       49
   40.525       44
   40.540       53
   40.555       51
   40.570       46
   40.585       57
   40.600       67
   40.615       60
   40.630       66
   40.645       62
   40.660       62
   40.675       55
   40.690       61
   40.705       53
   40.720       65
   40.735       69
   40.750       66
   40.765       71
   40.780       70
   40.795       65
   40.810       59
   40.825       56
   40.840       59
   40.855       48
   40.870       46
   40.885       46
   40.900       44
   40.915       48
   40.930       54
   40.945       60
   40.960       56
   40.975       56
   40.990       51
   41.005       61
   41.020       69
   41.035       60
   41.050       70
   41.065       60
   41.080       64
   41.095       71
   41.110       64
   41.125       57
   41.140       62
   41.155       70
   41.170       60
   41.185       51
   41.200       52
   41.215       58
   41.230       41
   41.245       52
   41.260       49
   41.275       38
   41.290       45
   41.305       47
   41.320       43
   41.335       43
   41.350       51
   41.365       45
   41.380       48
   41.395       55
   41.410       54
   41.425       54
   41.440       53
   41.455       48
   41.470       46
   41.485       47
   41.500       42
   41.515       39
   41.530       40
   41.545       34
   41.560       55
   41.575       47
   41.590       41
   41.605       43
   41.620       36
   41.635       46
   41.650       56
   41.665       50
   41.680       43
   41.695       43
   41.710       48
   41.725       35
   41.740       47
   41.755       46
   41.770       52
   41.785       61
   41.800       41
   41.815       46
   41.830       43
   41.845       45
   41.860       45
   41.875       42
   41.890       47
   41.905       47
   41.920       40
   41.935       38
   41.950       49
   41.965       39
   41.980       48
   41.995       57
   42.010       52
   42.025       54
   42.040       51
   42.055       47
   42.070       51
   42.085       51
   42.100       55
   42.115       49
   42.130       50
   42.145       50
   42.160       56
   42.175       59
   42.190       50
   42.205       51
   42.220       52
   42.235       41
   42.250       40
   42.265       52
   42.280       45
   42.295       56
   42.310       51
   42.325       39
   42.340       56
   42.355       57
   42.370       47
   42.385       51
   42.400       52
   42.415       49
   42.430       59
   42.445       55
   42.460       42
   42.475       53
   42.490       52
   42.505       41
   42.520       48
   42.535       55
   42.550       44
   42.565       45
   42.580       51
   42.595       59
   42.610       55
   42.625       67
   42.640       68
   42.655       53
   42.670       50
   42.685       42
   42.700       60
   42.715       48
   42.730       47
   42.745       56
   42.760       48
   42.775       45
   42.790       47
   42.805       55
   42.820       53
   42.835       50
   42.850       43
   42.865       45
   42.880       45
   42.895       35
   42.910       32
   42.925       29
   42.940       41
   42.955       38
   42.970       35
   42.985       37
   43.000       39
   43.015       57
   43.030       52
   43.045       37
   43.060       45
   43.075       38
   43.090       42
   43.105       39
   43.120       49
   43.135       45
   43.150       41
   43.165       44
   43.180       48
   43.195       47
   43.210       44
   43.225       37
   43.240       39
   43.255       57
   43.270       49
   43.285       48
   43.300       42
   43.315       46
   43.330       38
   43.345       40
   43.360       37
   43.375       46
   43.390       46
   43.405       42
   43.420       45
   43.435       46
   43.450       47
   43.465       46
   43.480       41
   43.495       47
   43.510       44
   43.525       51
   43.540       50
   43.555       47
   43.570       46
   43.585       41
   43.600       42
   43.615       46
   43.630       42
   43.645       39
   43.660       44
   43.675       44
   43.690       48
   43.705       38
   43.720       27
   43.735       42
   43.750       47
   43.765       39
   43.780       42
   43.795       39
   43.810       43
   43.825       42
   43.840       38
   43.855       40
   43.870       45
   43.885       43
   43.900       40
   43.915       45
   43.930       51
   43.945       52
   43.960       53
   43.975       43
   43.990       42
   44.005       34
   44.020       41
   44.035       40
   44.050       34
   44.065       41
   44.080       46
   44.095       47
   44.110       47
   44.125       42
   44.140       42
   44.155       43
   44.170       42
   44.185       47
   44.200       54
   44.215       49
   44.230       52
   44.245       54
   44.260       48
   44.275       40
   44.290       50
   44.305       53
   44.320       49
   44.335       52
   44.350       68
   44.365       64
   44.380       54
   44.395       65
   44.410       58
   44.425       57
   44.440       52
   44.455       56
   44.470       57
   44.485       53
   44.500       58
   44.515       42
   44.530       52
   44.545       47
   44.560       46
   44.575       53
   44.590       47
   44.605       48
   44.620       41
   44.635       47
   44.650       45
   44.665       43
   44.680       38
   44.695       48
   44.710       46
   44.725       52
   44.740       71
   44.755       50
   44.770       53
   44.785       42
   44.800       39
   44.815       44
   44.830       40
   44.845       35
   44.860       37
   44.875       44
   44.890       36
   44.905       48
   44.920       53
   44.935       54
   44.950       48
   44.965       54
   44.980       54
   44.995       69
   45.010       54
   45.025       52
   45.040       58
   45.055       58
   45.070       60
   45.085       67
   45.100       52
   45.115       65
   45.130       59
   45.145       45
   45.160       56
   45.175       48
   45.190       65
   45.205       54
   45.220       55
   45.235       44
   45.250       52
   45.265       59
   45.280       59
   45.295       58
   45.310       66
   45.325       48
   45.340       49
   45.355       65
   45.370       57
   45.385       44
   45.400       46
   45.415       62
   45.430       60
   45.445       51
   45.460       61
   45.475       54
   45.490       49
   45.505       50
   45.520       59
   45.535       51
   45.550       48
   45.565       60
   45.580       42
   45.595       63
   45.610       57
   45.625       50
   45.640       46
   45.655       49
   45.670       53
   45.685       44
   45.700       43
   45.715       51
   45.730       48
   45.745       55
   45.760       49
   45.775       55
   45.790       44
   45.805       43
   45.820       43
   45.835       54
   45.850       48
   45.865       48
   45.880       43
   45.895       35
   45.910       43
   45.925       42
   45.940       37
   45.955       43
   45.970       46
   45.985       47
