    4.000       46
    4.015       44
    4.030       39
    4.045       50
    4.060       37
    4.075       64
    4.090       56
    4.105       48
    4.120       46
    4.135       59
    4.150       52
    4.165       50
    4.180       50
    4.195       55
    4.210       60
    4.225       50
    4.240       43
    4.255       52
    4.270       47
    4.285       48
    4.300       50
    4.315       42
    4.330       55
    4.345       50
    4.360       55
    4.375       52
    4.390       58
    4.405       58
    4.420       51
    4.435       50
    4.450       52
    4.465       51
    4.480       55
    4.495       48
    4.510       56
    4.525       58
    4.540       57
    4.555       54
    4.570       62
    4.585       51
    4.600       52
    4.615       51
    4.630       54
    4.645       48
    4.660       52
    4.675       40
    4.690       46
    4.705       53
    4.720       50
    4.735       53
    4.750       52
    4.765       50
    4.780       49
    4.795       55
    4.810       46
    4.825       46
    4.840       50
    4.855       49
    4.870       45
    4.885       53
    4.900       53
    4.915       46
    4.930       39
    4.945       34
    4.960       41
    4.975       51
    4.990       57
    5.005       54
    5.020       50
    5.035       44
    5.050       52
    5.065       54
    5.080       52
    5.095       49
    5.110       51
    5.125       48
    5.140       57
    5.155       57
    5.170       53
    5.185       49
    5.200       51
    5.215       55
    5.230       48
    5.245       47
    5.260       44
    5.275       42
    5.290       41
    5.305       43
    5.320       51
    5.335       49
    5.350       40
    5.365       44
    5.380       49
    5.395       52
    5.410       53
    5.425       46
    5.440       46
    5.455       56
    5.470       56
    5.485       50
    5.500       35
    5.515       36
    5.530       51
    5.545       48
    5.560       59
    5.575       51
    5.590       45
    5.605       54
    5.620       46
    5.635       42
    5.650       36
    5.665       46
    5.680       54
    5.695       42
    5.710       48
    5.725       37
    5.740       46
    5.755       51
    5.770       48
    5.785       41
    5.800       44
    5.815       47
    5.830       51
    5.845       54
    5.860       54
    5.875       48
    5.890       48
    5.905       54
    5.920       50
    5.935       53
    5.950       63
    5.965       51
    5.980       49
    5.995       51
    6.010       51
    6.025       37
    6.040       53
    6.055       47
    6.070       51
    6.085       36
    6.100       52
    6.115       47
    6.130       33
    6.145       44
    6.160       43
    6.175       47
    6.190       56
    6.205       53
    6.220       61
    6.235       64
    6.250       49
    6.265       51
    6.280       46
    6.295       63
    6.310       71
    6.325       65
    6.340       72
    6.355       82
    6.370       75
    6.385       75
    6.400       88
    6.415       89
    6.430       87
    6.445       89
    6.460       99
    6.475       98
    6.490       91
    6.505      108
    6.520      114
    6.535      110
    6.550      159
    6.565      200
    6.580      190
    6.595      203
    6.610      205
    6.625      180
    6.640      215
    6.655      214
    6.670      170
    6.685      131
    6.700       79
    6.715       51
    6.730       61
    6.745       55
    6.760       50
    6.775       52
    6.790       50
    6.805       41
    6.820       38
    6.835       54
    6.850       42
    6.865       46
    6.880       46
    6.895       43
    6.910       42
    6.925       55
    6.940       51
    6.955       40
    6.970       47
    6.985       62
    7.000       51
    7.015       53
    7.030       57
    7.045       69
    7.060       60
    7.075       57
    7.090       68
    7.105       68
    7.120       71
    7.135       74
    7.150       91
    7.165      116
    7.180      127
    7.195      106
    7.210       65
    7.225       54
    7.240       48
    7.255       40
    7.270       42
    7.285       47
    7.300       42
    7.315       42
    7.330       50
    7.345       59
    7.360       54
    7.375       43
    7.390       50
    7.405       42
    7.420       51
    7.435       45
    7.450       30
    7.465       39
    7.480       40
    7.495       43
    7.510       40
    7.525       43
    7.540       46
    7.555       43
    7.570       47
    7.585       47
    7.600       46
    7.615       47
    7.630       58
    7.645       46
    7.660       42
    7.675       59
    7.690       41
    7.705       40
    7.720       41
    7.735       37
    7.750       36
    7.765       46
    7.780       42
    7.795       49
    7.810       40
    7.825       46
    7.840       51
    7.855       39
    7.870       38
    7.885       44
    7.900       49
    7.915       48
    7.930       39
    7.945       39
    7.960       45
    7.975       52
    7.990       43
    8.005       45
    8.020       48
    8.035       42
    8.050       41
    8.065       44
    8.080       46
    8.095       42
    8.110       44
    8.125       46
    8.140       49
    8.155       47
    8.170       46
    8.185       43
    8.200       44
    8.215       55
    8.230       48
    8.245       47
    8.260       33
    8.275       38
    8.290       46
    8.305       48
    8.320       44
    8.335       39
    8.350       46
    8.365       50
    8.380       35
    8.395       40
    8.410       53
    8.425       56
    8.440       42
    8.455       52
    8.470       51
    8.485       45
    8.500       43
    8.515       51
    8.530       54
    8.545       56
    8.560       56
    8.575       50
    8.590       55
    8.605       37
    8.620       46
    8.635       43
    8.650       50
    8.665       51
    8.680       45
    8.695       53
    8.710       48
    8.725       32
    8.740       54
    8.755       50
    8.770       46
    8.785       51
    8.800       57
    8.815       45
    8.830       52
    8.845       43
    8.860       32
    8.875       31
    8.890       32
    8.905       41
    8.920       48
    8.935       33
    8.950       43
    8.965       39
    8.980       42
    8.995       43
    9.010       43
    9.025       48
    9.040       48
    9.055       52
    9.070       48
    9.085       54
    9.100       65
    9.115       53
    9.130       48
    9.145       53
    9.160       44
    9.175       38
    9.190       34
    9.205       46
    9.220       57
    9.235       50
    9.250       48
    9.265       40
    9.280       44
    9.295       48
    9.310       48
    9.325       53
    9.340       41
    9.355       42
    9.370       51
    9.385       47
    9.400       49
    9.415       44
    9.430       46
    9.445       55
    9.460       47
    9.475       43
    9.490       44
    9.505       48
    9.520       47
    9.535       50
    9.550       51
    9.565       42
    9.580       40
    9.595       44
    9.610       45
    9.625       51
    9.640       46
    9.655       51
    9.670       52
    9.685       50
    9.700       46
    9.715       55
    9.730       47
    9.745       62
    9.760       62
    9.775       52
    9.790       53
    9.805       60
    9.820       75
    9.835       57
    9.850       55
    9.865       45
    9.880       44
    9.895       55
    9.910       40
    9.925       45
    9.940       53
    9.955       38
    9.970       44
    9.985       44
   10.000       39
   10.015       40
   10.030       44
   10.045       50
   10.060       48
   10.075       48
   10.090       44
   10.105       47
   10.120       43
   10.135       42
   10.150       43
   10.165       41
   10.180       39
   10.195       43
   10.210       46
   10.225       41
   10.240       51
   10.255       48
   10.270       52
   10.285       60
   10.300       55
   10.315       57
   10.330       56
   10.345       60
   10.360       61
   10.375       67
   10.390       77
   10.405       66
   10.420       71
   10.435       84
   10.450      100
   10.465      110
   10.480      111
   10.495       85
   10.510       64
   10.525       51
   10.540       52
   10.555       64
   10.570       43
   10.585       44
   10.600       52
   10.615       54
   10.630       54
   10.645       57
   10.660       57
   10.675       67
   10.690       61
   10.705       60
   10.720       65
   10.735       73
   10.750       73
   10.765       80
   10.780       81
   10.795       86
   10.810       93
   10.825      126
   10.840      141
   10.855      161
   10.870      126
   10.885       82
   10.900       56
   10.915       53
   10.930       55
   10.945       54
   10.960       40
   10.975       50
   10.990       56
   11.005       44
   11.020       43
   11.035       52
   11.050       63
   11.065       52
   11.080       46
   11.095       50
   11.110       60
   11.125       69
   11.140       61
   11.155       69
   11.170       83
   11.185       69
   11.200       84
   11.215       92
   11.230       95
   11.245       93
   11.260       77
   11.275       63
   11.290       49
   11.305       62
   11.320       56
   11.335       55
   11.350       64
   11.365       69
   11.380       64
   11.395       72
   11.410       71
   11.425       70
   11.440       53
   11.455       42
   11.470       55
   11.485       41
   11.500       39
   11.515       42
   11.530       51
   11.545       42
   11.560       39
   11.575       41
   11.590       47
   11.605       39
   11.620       50
   11.635       56
   11.650       56
   11.665       53
   11.680       43
   11.695       39
   11.710       46
   11.725       46
   11.740       48
   11.755       55
   11.770       69
   11.785       65
   11.800       58
   11.815       52
   11.830       58
   11.845       74
   11.860       74
   11.875       81
   11.890       79
   11.905       59
   11.920       62
   11.935       60
   11.950       39
   11.965       38
   11.980       40
   11.995       50
   12.010       61
   12.025       64
   12.040       62
   12.055       73
   12.070       57
   12.085       62
   12.100       58
   12.115       56
   12.130       54
   12.145       38
   12.160       38
   12.175       58
   12.190       51
   12.205       45
   12.220       52
   12.235       48
   12.250       44
   12.265       37
   12.280       44
   12.295       51
   12.310       45
   12.325       53
   12.340       55
   12.355       47
   12.370       44
   12.385       45
   12.400       53
   12.415       62
   12.430       68
   12.445       62
   12.460       80
   12.475       81
   12.490       87
   12.505       92
   12.520      103
   12.535      106
   12.550      117
   12.565      156
   12.580      174
   12.595      210
   12.610      234
   12.625      309
   12.640      423
   12.655      451
   12.670      462
   12.685      373
   12.700      296
   12.715      258
   12.730      276
   12.745      307
   12.760      320
   12.775      245
   12.790      159
   12.805      102
   12.820       77
   12.835       80
   12.850       54
   12.865       62
   12.880       64
   12.895       78
   12.910       81
   12.925       79
   12.940       92
   12.955       94
   12.970       98
   12.985      115
   13.000      142
   13.015      150
   13.030      199
   13.045      251
   13.060      254
   13.075      222
   13.090      182
   13.105      161
   13.120      154
   13.135      188
   13.150      191
   13.165      247
   13.180      329
   13.195      391
   13.210      491
   13.225      614
   13.240      608
   13.255      557
   13.270      490
   13.285      436
   13.300      535
   13.315      675
   13.330      933
   13.345     1181
   13.360     1148
   13.375      874
   13.390      570
   13.405      318
   13.420      152
   13.435      123
   13.450      109
   13.465      120
   13.480      118
   13.495      139
   13.510      143
   13.525      146
   13.540      199
   13.555      246
   13.570      304
   13.585      259
   13.600      273
   13.615      311
   13.630      266
   13.645      214
   13.660      141
   13.675      104
   13.690       73
   13.705       68
   13.720       67
   13.735       74
   13.750       64
   13.765       67
   13.780       75
   13.795       80
   13.810       76
   13.825       89
   13.840       98
   13.855      104
   13.870      102
   13.885      105
   13.900       82
   13.915       53
   13.930       42
   13.945       39
   13.960       48
   13.975       54
   13.990       40
   14.005       44
   14.020       42
   14.035       53
   14.050       47
   14.065       54
   14.080       53
   14.095       52
   14.110       47
   14.125       52
   14.140       60
   14.155       60
   14.170       62
   14.185       68
   14.200       67
   14.215       69
   14.230       77
   14.245       92
   14.260      104
   14.275      108
   14.290      131
   14.305      157
   14.320      157
   14.335      157
   14.350      137
   14.365      128
   14.380      146
   14.395      178
   14.410      166
   14.425      184
   14.440      180
   14.455      155
   14.470      167
   14.485      218
   14.500      268
   14.515      321
   14.530      269
   14.545      219
   14.560      124
   14.575       96
   14.590       80
   14.605       63
   14.620       38
   14.635       59
   14.650       53
   14.665       57
   14.680       54
   14.695       48
   14.710       61
   14.725       54
   14.740       58
   14.755       48
   14.770       58
   14.785       46
   14.800       55
   14.815       53
   14.830       52
   14.845       46
   14.860       55
   14.875       57
   14.890       77
   14.905       86
   14.920       91
   14.935      103
   14.950      113
   14.965      137
   14.980      159
   14.995      199
   15.010      275
   15.025      323
   15.040      331
   15.055      378
   15.070      439
   15.085      509
   15.100      657
   15.115      772
   15.130      708
   15.145      517
   15.160      339
   15.175      186
   15.190      133
   15.205       93
   15.220       88
   15.235      104
   15.250      113
   15.265      138
   15.280      144
   15.295      202
   15.310      217
   15.325      222
   15.340      242
   15.355      204
   15.370      189
   15.385      171
   15.400      147
   15.415      160
   15.430      146
   15.445      126
   15.460      113
   15.475       99
   15.490       98
   15.505      111
   15.520      123
   15.535      129
   15.550      158
   15.565      186
   15.580      205
   15.595      269
   15.610      333
   15.625      357
   15.640      318
   15.655      203
   15.670      139
   15.685      109
   15.700      128
   15.715      120
   15.730      122
   15.745      155
   15.760      161
   15.775      198
   15.790      257
   15.805      290
   15.820      246
   15.835      186
   15.850      145
   15.865       82
   15.880       74
   15.895       67
   15.910       67
   15.925       72
   15.940       65
   15.955       59
   15.970       78
   15.985       60
   16.000       78
   16.015      106
   16.030      106
   16.045      113
   16.060      159
   16.075      168
   16.090      201
   16.105      250
   16.120      273
   16.135      324
   16.150      361
   16.165      339
   16.180      260
   16.195      158
   16.210      120
   16.225       93
   16.240       96
   16.255       99
   16.270      101
   16.285      109
   16.300      130
   16.315      177
   16.330      197
   16.345      204
   16.360      198
   16.375      171
   16.390      210
   16.405      237
   16.420      311
   16.435      412
   16.450      427
   16.465      415
   16.480      325
   16.495      239
   16.510      208
   16.525      217
   16.540      202
   16.555      263
   16.570      335
   16.585      360
   16.600      340
   16.615      305
   16.630      224
   16.645      192
   16.660      194
   16.675      204
   16.690      264
   16.705      323
   16.720      356
   16.735      340
   16.750      309
   16.765      279
   16.780      282
   16.795      301
   16.810      320
   16.825      324
   16.840      328
   16.855      280
   16.870      209
   16.885      152
   16.900      106
   16.915       95
   16.930       90
   16.945       95
   16.960      104
   16.975       96
   16.990      118
   17.005      139
   17.020      152
   17.035      180
   17.050      200
   17.065      202
   17.080      163
   17.095      140
   17.110      111
   17.125      109
   17.140      117
   17.155      140
   17.170      157
   17.185      182
   17.200      208
   17.215      244
   17.230      290
   17.245      281
   17.260      293
   17.275      252
   17.290      205
   17.305      152
   17.320      112
   17.335      120
   17.350      134
   17.365      134
   17.380      117
   17.395      123
   17.410      121
   17.425      124
   17.440      147
   17.455      177
   17.470      202
   17.485      234
   17.500      248
   17.515      241
   17.530      175
   17.545      106
   17.560      100
   17.575       78
   17.590       73
   17.605       69
   17.620       72
   17.635       80
   17.650       80
   17.665      105
   17.680      115
   17.695      111
   17.710      109
   17.725      122
   17.740      114
   17.755      120
   17.770      118
   17.785       99
   17.800       91
   17.815       91
   17.830       78
   17.845       73
   17.860       87
   17.875       73
   17.890       68
   17.905       54
   17.920       63
   17.935       64
   17.950       65
   17.965       58
   17.980       61
   17.995       68
   18.010       54
   18.025       53
   18.040       57
   18.055       57
   18.070       53
   18.085       49
   18.100       55
   18.115       57
   18.130       68
   18.145       59
   18.160       61
   18.175       70
   18.190       82
   18.205       86
   18.220       91
   18.235      106
   18.250      127
   18.265      129
   18.280      141
   18.295      142
   18.310      159
   18.325      178
   18.340      165
   18.355      141
   18.370       91
   18.385       65
   18.400       60
   18.415       65
   18.430       51
   18.445       57
   18.460       67
   18.475       67
   18.490       71
   18.505       79
   18.520       86
   18.535       97
   18.550      106
   18.565      128
   18.580      167
   18.595      156
   18.610      146
   18.625      137
   18.640      131
   18.655      148
   18.670      184
   18.685      189
   18.700      182
   18.715      196
   18.730      177
   18.745      129
   18.760      121
   18.775      103
   18.790       89
   18.805       72
   18.820       85
   18.835       85
   18.850       80
   18.865       92
   18.880       97
   18.895      116
   18.910      147
   18.925      134
   18.940      136
   18.955      125
   18.970      114
   18.985      108
   19.000      100
   19.015       94
   19.030       93
   19.045       73
   19.060       67
   19.075       66
   19.090       62
   19.105       71
   19.120       62
   19.135       64
   19.150       55
   19.165       49
   19.180       58
   19.195       49
   19.210       43
   19.225       45
   19.240       49
   19.255       41
   19.270       53
   19.285       63
   19.300       40
   19.315       45
   19.330       67
   19.345       50
   19.360       33
   19.375       39
   19.390       55
   19.405       61
   19.420       59
   19.435       58
   19.450       51
   19.465       48
   19.480       55
   19.495       65
   19.510       63
   19.525       64
   19.540       65
   19.555       74
   19.570       90
   19.585      112
   19.600      150
   19.615      135
   19.630      157
   19.645      176
   19.660      150
   19.675      147
   19.690      118
   19.705       96
   19.720       76
   19.735       74
   19.750       74
   19.765       70
   19.780       91
   19.795       96
   19.810      123
   19.825      151
   19.840      194
   19.855      226
   19.870      267
   19.885      340
   19.900      428
   19.915      422
   19.930      369
   19.945      286
   19.960      218
   19.975      166
   19.990      155
   20.005      204
   20.020      216
   20.035      227
   20.050      243
   20.065      232
   20.080      218
   20.095      192
   20.110      148
   20.125      116
   20.140      102
   20.155       81
   20.170       80
   20.185       84
   20.200       82
   20.215       84
   20.230       86
   20.245      107
   20.260      106
   20.275      103
   20.290       96
   20.305       78
   20.320       69
   20.335       62
   20.350       53
   20.365       59
   20.380       55
   20.395       56
   20.410       49
   20.425       51
   20.440       66
   20.455       61
   20.470       58
   20.485       62
   20.500       63
   20.515       61
   20.530       68
   20.545       62
   20.560       83
   20.575       70
   20.590       90
   20.605       80
   20.620       85
   20.635       86
   20.650       68
   20.665       57
   20.680       63
   20.695       63
   20.710       87
   20.725       79
   20.740       89
   20.755      102
   20.770      106
   20.785      138
   20.800      159
   20.815      165
   20.830      162
   20.845      155
   20.860      160
   20.875      178
   20.890      209
   20.905      174
   20.920      157
   20.935      114
   20.950       95
   20.965       84
   20.980       79
   20.995       77
   21.010       74
   21.025       62
   21.040       77
   21.055       71
   21.070       66
   21.085       63
   21.100       62
   21.115       60
   21.130       77
   21.145       69
   21.160       70
   21.175       69
   21.190       74
   21.205       72
   21.220       73
   21.235       78
   21.250       82
   21.265       86
   21.280       89
   21.295       74
   21.310       67
   21.325       61
   21.340       54
   21.355       50
   21.370       53
   21.385       62
   21.400       60
   21.415       50
   21.430       48
   21.445       51
   21.460       57
   21.475       57
   21.490       59
   21.505       71
   21.520       77
   21.535       92
   21.550      110
   21.565      123
   21.580      162
   21.595      195
   21.610      213
   21.625      206
   21.640      159
   21.655      141
   21.670      135
   21.685      129
   21.700      113
   21.715      149
   21.730      173
   21.745      210
   21.760      275
   21.775      379
   21.790      457
   21.805      545
   21.820      560
   21.835      458
   21.850      364
   21.865      236
   21.880      178
   21.895      130
   21.910      114
   21.925      130
   21.940      111
   21.955      117
   21.970       85
   21.985       79
   22.000       59
   22.015       65
   22.030       60
   22.045       52
   22.060       47
   22.075       60
   22.090       63
   22.105       47
   22.120       56
   22.135       61
   22.150       59
   22.165       66
   22.180       71
   22.195       64
   22.210       67
   22.225       65
   22.240       63
   22.255       78
   22.270       76
   22.285       82
   22.300       79
   22.315       82
   22.330       81
   22.345       95
   22.360       79
   22.375       92
   22.390      113
   22.405      120
   22.420      140
   22.435      130
   22.450       97
   22.465       84
   22.480       74
   22.495       87
   22.510       77
   22.525       95
   22.540       87
   22.555      108
   22.570      124
   22.585      145
   22.600      169
   22.615      182
   22.630      191
   22.645      205
   22.660      151
   22.675      136
   22.690      108
   22.705       81
   22.720       89
   22.735       88
   22.750      112
   22.765      126
   22.780      144
   22.795      154
   22.810      186
   22.825      192
   22.840      225
   22.855      219
   22.870      212
   22.885      180
   22.900      176
   22.915      135
   22.930      119
   22.945      100
   22.960       97
   22.975       82
   22.990       66
   23.005       59
   23.020       86
   23.035       87
   23.050       94
   23.065      101
   23.080      102
   23.095       98
   23.110       85
   23.125       99
   23.140       97
   23.155       99
   23.170      105
   23.185      109
   23.200      118
   23.215      130
   23.230      113
   23.245      101
   23.260       80
   23.275       71
   23.290       66
   23.305       69
   23.320       65
   23.335       60
   23.350       54
   23.365       61
   23.380       68
   23.395       76
   23.410       83
   23.425       81
   23.440       76
   23.455       64
   23.470       59
   23.485       54
   23.500       60
   23.515       53
   23.530       51
   23.545       40
   23.560       46
   23.575       46
   23.590       47
   23.605       52
   23.620       60
   23.635       62
   23.650       59
   23.665       63
   23.680       53
   23.695       54
   23.710       56
   23.725       44
   23.740       40
   23.755       56
   23.770       55
   23.785       65
   23.800       56
   23.815       57
   23.830       74
   23.845       63
   23.860       68
   23.875       73
   23.890       64
   23.905       65
   23.920       64
   23.935       63
   23.950       66
   23.965       81
   23.980       82
   23.995      105
   24.010      126
   24.025       99
   24.040       90
   24.055       78
   24.070       63
   24.085       63
   24.100       48
   24.115       60
   24.130       55
   24.145       56
   24.160       66
   24.175       72
   24.190       70
   24.205       78
   24.220       88
   24.235      112
   24.250      131
   24.265      132
   24.280      123
   24.295       82
   24.310       75
   24.325       62
   24.340       64
   24.355       55
   24.370       57
   24.385       58
   24.400       59
   24.415       49
   24.430       60
   24.445       65
   24.460       72
   24.475       70
   24.490       84
   24.505       73
   24.520       84
   24.535       78
   24.550       74
   24.565       87
   24.580      101
   24.595       89
   24.610       89
   24.625       83
   24.640       91
   24.655       95
   24.670       99
   24.685       86
   24.700       86
   24.715       77
   24.730       88
   24.745       77
   24.760       80
   24.775      100
   24.790       79
   24.805       58
   24.820       58
   24.835       59
   24.850       62
   24.865       54
   24.880       66
   24.895       71
   24.910       74
   24.925       89
   24.940      128
   24.955      122
   24.970      121
   24.985      120
   25.000      110
   25.015      104
   25.030       87
   25.045       73
   25.060       79
   25.075       87
   25.090       90
   25.105       84
   25.120       81
   25.135       87
   25.150       94
   25.165       92
   25.180       94
   25.195       95
   25.210      103
   25.225       83
   25.240       78
   25.255       70
   25.270       72
   25.285       58
   25.300       47
   25.315       56
   25.330       77
   25.345       66
   25.360       65
   25.375       75
   25.390       92
   25.405      126
   25.420      118
   25.435      116
   25.450      103
   25.465      107
   25.480       73
   25.495       90
   25.510       67
   25.525       68
   25.540       86
   25.555       72
   25.570       82
   25.585       89
   25.600       95
   25.615      124
   25.630      170
   25.645      182
   25.660      193
   25.675      209
   25.690      216
   25.705      184
   25.720      149
   25.735      112
   25.750       97
   25.765       89
   25.780       81
   25.795       84
   25.810       86
   25.825       80
   25.840       95
   25.855      123
   25.870      125
   25.885      132
   25.900      143
   25.915      129
   25.930      108
   25.945       96
   25.960       81
   25.975       75
   25.990       73
   26.005       64
   26.020       81
   26.035       77
   26.050       76
   26.065       72
   26.080       83
   26.095       87
   26.110      102
   26.125      115
   26.140      126
   26.155      116
   26.170      119
   26.185      122
   26.200       96
   26.215       75
   26.230       64
   26.245       70
   26.260       67
   26.275       75
   26.290       72
   26.305       69
   26.320       67
   26.335       83
   26.350       81
   26.365       85
   26.380       78
   26.395       74
   26.410       70
   26.425       64
   26.440       53
   26.455       68
   26.470       52
   26.485       61
   26.500       61
   26.515       63
   26.530       60
   26.545       60
   26.560       64
   26.575       63
   26.590       58
   26.605       66
   26.620       86
   26.635       89
   26.650       90
   26.665       96
   26.680       80
   26.695       75
   26.710       69
   26.725       75
   26.740       72
   26.755       58
   26.770       62
   26.785       60
   26.800       59
   26.815       69
   26.830       85
   26.845       81
   26.860       98
   26.875      148
   26.890      159
   26.905      182
   26.920      162
   26.935      154
   26.950      159
   26.965      170
   26.980      168
   26.995      183
   27.010      161
   27.025      118
   27.040      109
   27.055       90
   27.070       92
   27.085       67
   27.100       73
   27.115       72
   27.130       81
   27.145       72
   27.160       74
   27.175       66
   27.190       62
   27.205       78
   27.220       85
   27.235       86
   27.250       76
   27.265       90
   27.280       68
   27.295       82
   27.310       67
   27.325       72
   27.340       70
   27.355       83
   27.370       85
   27.385       83
   27.400       72
   27.415       77
   27.430       98
   27.445       93
   27.460      104
   27.475      116
   27.490      123
   27.505      132
   27.520      142
   27.535      130
   27.550      155
   27.565      151
   27.580      177
   27.595      174
   27.610      192
   27.625      196
   27.640      179
   27.655      147
   27.670      130
   27.685      138
   27.700      116
   27.715      107
   27.730      109
   27.745      107
   27.760       90
   27.775       90
   27.790       82
   27.805       92
   27.820       90
   27.835      101
   27.850      126
   27.865      153
   27.880      128
   27.895      129
   27.910      130
   27.925      127
   27.940      116
   27.955       80
   27.970       86
   27.985       65
   28.000       61
   28.015       58
   28.030       49
   28.045       45
   28.060       65
   28.075       70
   28.090       79
   28.105       83
   28.120       82
   28.135       98
   28.150      103
   28.165      104
   28.180       93
   28.195       79
   28.210       81
   28.225       76
   28.240       79
   28.255       88
   28.270       95
   28.285       78
   28.300       97
   28.315       86
   28.330       99
   28.345      103
   28.360      107
   28.375      102
   28.390      104
   28.405      100
   28.420       94
   28.435       91
   28.450       84
   28.465       84
   28.480       77
   28.495       63
   28.510       63
   28.525       61
   28.540       57
   28.555       55
   28.570       52
   28.585       45
   28.600       55
   28.615       66
   28.630       70
   28.645       65
   28.660       61
   28.675       65
   28.690       69
   28.705       77
   28.720       78
   28.735       75
   28.750       84
   28.765       73
   28.780       66
   28.795       59
   28.810       64
   28.825       71
   28.840       73
   28.855       86
   28.870       90
   28.885       93
   28.900      103
   28.915      101
   28.930      102
   28.945       99
   28.960       95
   28.975      101
   28.990      100
   29.005       97
   29.020      105
   29.035       88
   29.050       94
   29.065      104
   29.080      115
   29.095      107
   29.110       95
   29.125       93
   29.140       81
   29.155       78
   29.170       84
   29.185       79
   29.200       85
   29.215       84
   29.230       85
   29.245       73
   29.260       77
   29.275       89
   29.290       79
   29.305       74
   29.320       73
   29.335       71
   29.350       63
   29.365       65
   29.380       59
   29.395       56
   29.410       54
   29.425       58
   29.440       66
   29.455       74
   29.470       80
   29.485       85
   29.500       75
   29.515       72
   29.530       87
   29.545       79
   29.560       87
   29.575       90
   29.590       91
   29.605      100
   29.620      103
   29.635      104
   29.650      114
   29.665      120
   29.680      115
   29.695      130
   29.710      123
   29.725      104
   29.740      105
   29.755       94
   29.770       83
   29.785       79
   29.800       86
   29.815       76
   29.830       73
   29.845       82
   29.860       81
   29.875       87
   29.890       87
   29.905       68
   29.920       79
   29.935       70
   29.950       61
   29.965       47
   29.980       54
   29.995       67
   30.010       49
   30.025       53
   30.040       49
   30.055       62
   30.070       70
   30.085       58
   30.100       50
   30.115       61
   30.130       56
   30.145       58
   30.160       74
   30.175       61
   30.190       67
   30.205       64
   30.220       63
   30.235       66
   30.250       57
   30.265       62
   30.280       58
   30.295       71
   30.310       66
   30.325       80
   30.340       62
   30.355       57
   30.370       66
   30.385       72
   30.400       70
   30.415       63
   30.430       73
   30.445       71
   30.460       68
   30.475       71
   30.490       74
   30.505       86
   30.520       83
   30.535       71
   30.550       84
   30.565       90
   30.580       94
   30.595       91
   30.610       91
   30.625      105
   30.640       90
   30.655       90
   30.670       85
   30.685       75
   30.700       78
   30.715       61
   30.730       62
   30.745       64
   30.760       54
   30.775       66
   30.790       54
   30.805       59
   30.820       71
   30.835       62
   30.850       55
   30.865       77
   30.880       88
   30.895       78
   30.910       79
   30.925       89
   30.940       99
   30.955      104
   30.970      121
   30.985      106
   31.000       99
   31.015      102
   31.030       90
   31.045       88
   31.060       74
   31.075       92
   31.090       77
   31.105       78
   31.120       74
   31.135       79
   31.150       71
   31.165       62
   31.180       79
   31.195       77
   31.210       71
   31.225       78
   31.240       67
   31.255       80
   31.270       68
   31.285       85
   31.300       67
   31.315       74
   31.330       96
   31.345       90
   31.360       92
   31.375       96
   31.390       92
   31.405       80
   31.420       67
   31.435       64
   31.450       65
   31.465       81
   31.480       81
   31.495       73
   31.510       78
   31.525       78
   31.540       98
   31.555      117
   31.570      116
   31.585       99
   31.600      110
   31.615       77
   31.630       92
   31.645       96
   31.660       82
   31.675       83
   31.690       84
   31.705       96
   31.720      107
   31.735       94
   31.750       87
   31.765       77
   31.780       89
   31.795       90
   31.810       98
   31.825      103
   31.840       94
   31.855       98
   31.870      122
   31.885      119
   31.900      119
   31.915      103
   31.930       94
   31.945       91
   31.960       70
   31.975       87
   31.990       82
   32.005       79
   32.020       81
   32.035       66
   32.050       72
   32.065       68
   32.080       66
   32.095       76
   32.110       78
   32.125       91
   32.140       79
   32.155       64
   32.170       70
   32.185       71
   32.200       62
   32.215       74
   32.230       71
   32.245       60
   32.260       53
   32.275       62
   32.290       60
   32.305       64
   32.320       68
   32.335       64
   32.350       70
   32.365       77
   32.380       68
   32.395       69
   32.410       75
   32.425       78
   32.440       72
   32.455       65
   32.470       66
   32.485       64
   32.500       61
   32.515       56
   32.530       46
   32.545       68
   32.560       52
   32.575       60
   32.590       57
   32.605       52
   32.620       63
   32.635       71
   32.650       57
   32.665       68
   32.680       61
   32.695       50
   32.710       62
   32.725       67
   32.740       51
   32.755       51
   32.770       73
   32.785       65
   32.800       66
   32.815       61
   32.830       55
   32.845       71
   32.860       76
   32.875       78
   32.890       81
   32.905       91
   32.920       81
   32.935       95
   32.950      106
   32.965      117
   32.980      118
   32.995       94
   33.010       97
   33.025       90
   33.040       85
   33.055       82
   33.070       71
   33.085       62
   33.100       61
   33.115       66
   33.130       68
   33.145       66
   33.160       74
   33.175       66
   33.190       70
   33.205       58
   33.220       73
   33.235       69
   33.250       67
   33.265       76
   33.280       66
   33.295       61
   33.310       70
   33.325       73
   33.340       73
   33.355       83
   33.370       86
   33.385       79
   33.400       81
   33.415       96
   33.430      107
   33.445      101
   33.460      103
   33.475      117
   33.490      120
   33.505      122
   33.520      109
   33.535       88
   33.550       97
   33.565      107
   33.580      113
   33.595      105
   33.610       86
   33.625      103
   33.640       99
   33.655       87
   33.670       86
   33.685       73
   33.700       79
   33.715       82
   33.730       75
   33.745       79
   33.760       88
   33.775      107
   33.790      129
   33.805      132
   33.820      118
   33.835      107
   33.850      124
   33.865      118
   33.880      111
   33.895      101
   33.910       98
   33.925       91
   33.940       89
   33.955       85
   33.970       96
   33.985      101
   34.000      116
   34.015      101
   34.030       93
   34.045      102
   34.060      107
   34.075       97
   34.090       88
   34.105       80
   34.120       89
   34.135       75
   34.150       81
   34.165       73
   34.180       69
   34.195       72
   34.210       73
   34.225       79
   34.240       61
   34.255       53
   34.270       51
   34.285       60
   34.300       64
   34.315       52
   34.330       50
   34.345       57
   34.360       51
   34.375       60
   34.390       77
   34.405       76
   34.420       69
   34.435       79
   34.450       70
   34.465       68
   34.480       81
   34.495       90
   34.510       84
   34.525       87
   34.540       75
   34.555       77
   34.570       79
   34.585       75
   34.600       73
   34.615       69
   34.630       54
   34.645       58
   34.660       54
   34.675       52
   34.690       67
   34.705       75
   34.720       80
   34.735       75
   34.750       75
   34.765       76
   34.780       68
   34.795       86
   34.810       73
   34.825       65
   34.840       78
   34.855       69
   34.870       66
   34.885       72
   34.900       69
   34.915       71
   34.930       70
   34.945       69
   34.960       75
   34.975       79
   34.990       75
   35.005       71
   35.020       77
   35.035       68
   35.050       83
   35.065       88
   35.080       94
   35.095       84
   35.110       73
   35.125       75
   35.140       79
   35.155       76
   35.170       78
   35.185       87
   35.200       80
   35.215       78
   35.230       77
   35.245       76
   35.260       84
   35.275       95
   35.290       98
   35.305       85
   35.320       95
   35.335       91
   35.350       91
   35.365      106
   35.380       98
   35.395      102
   35.410      107
   35.425      118
   35.440      117
   35.455      127
   35.470      123
   35.485      117
   35.500      116
   35.515      103
   35.530      116
   35.545      118
   35.560      125
   35.575      136
   35.590      126
   35.605      138
   35.620      105
   35.635       99
   35.650       91
   35.665       94
   35.680       98
   35.695      105
   35.710       87
   35.725       81
   35.740       76
   35.755       64
   35.770       77
   35.785       72
   35.800       59
   35.815       55
   35.830       54
   35.845       50
   35.860       57
   35.875       54
   35.890       59
   35.905       59
   35.920       68
   35.935       53
   35.950       59
   35.965       57
   35.980       66
   35.995       59
   36.010       62
   36.025       54
   36.040       56
   36.055       50
   36.070       62
   36.085       65
   36.100       63
   36.115       75
   36.130       65
   36.145       58
   36.160       57
   36.175       81
   36.190       69
   36.205       70
   36.220       59
   36.235       68
   36.250       77
   36.265       77
   36.280       73
   36.295       66
   36.310       73
   36.325       70
   36.340       69
   36.355       59
   36.370       59
   36.385       63
   36.400       81
   36.415       59
   36.430       52
   36.445       69
   36.460       56
   36.475       64
   36.490       64
   36.505       55
   36.520       58
   36.535       64
   36.550       74
   36.565       73
   36.580       60
   36.595       58
   36.610       63
   36.625       58
   36.640       66
   36.655       60
   36.670       58
   36.685       58
   36.700       72
   36.715       68
   36.730       82
   36.745       83
   36.760       83
   36.775       86
   36.790       85
   36.805       66
   36.820       79
   36.835       67
   36.850       60
   36.865       51
   36.880       48
   36.895       50
   36.910       69
   36.925       71
   36.940       81
   36.955       72
   36.970       68
   36.985       70
   37.000       64
   37.015       71
   37.030       63
   37.045       76
   37.060       77
   37.075       85
   37.090       85
   37.105       75
   37.120       70
   37.135       82
   37.150       78
   37.165       85
   37.180       72
   37.195       76
   37.210       80
   37.225       71
   37.240       87
   37.255       86
   37.270       74
   37.285       84
   37.300       87
   37.315       86
   37.330       85
   37.345       62
   37.360       60
   37.375       70
   37.390       58
   37.405       60
   37.420       59
   37.435       59
   37.450       57
   37.465       49
   37.480       48
   37.495       55
   37.510       70
   37.525       69
   37.540       59
   37.555       73
   37.570       65
   37.585       65
   37.600       70
   37.615       75
   37.630       77
   37.645       53
   37.660       57
   37.675       69
   37.690       57
   37.705       63
   37.720       60
   37.735       64
   37.750       61
   37.765       61
   37.780       47
   37.795       60
   37.810       56
   37.825       69
   37.840       68
   37.855       73
   37.870       68
   37.885       67
   37.900       61
   37.915       72
   37.930       72
   37.945       68
   37.960       62
   37.975       66
   37.990       77
   38.005       86
   38.020       80
   38.035       72
   38.050       81
   38.065       77
   38.080       65
   38.095       58
   38.110       59
   38.125       59
   38.140       54
   38.155       59
   38.170       52
   38.185       60
   38.200       66
   38.215       71
   38.230       68
   38.245       66
   38.260       73
   38.275       65
   38.290       69
   38.305       75
   38.320       68
   38.335       61
   38.350       62
   38.365       72
   38.380       85
   38.395      100
   38.410      101
   38.425       91
   38.440       90
   38.455       90
   38.470       79
   38.485       60
   38.500       57
   38.515       67
   38.530       78
   38.545       68
   38.560       69
   38.575       60
   38.590       67
   38.605       59
   38.620       77
   38.635       80
   38.650       84
   38.665       76
   38.680       82
   38.695       78
   38.710       59
   38.725       61
   38.740       72
   38.755       67
   38.770       64
   38.785       67
   38.800       52
   38.815       64
   38.830       52
   38.845       60
   38.860       74
   38.875       75
   38.890       72
   38.905       76
   38.920       77
   38.935       67
   38.950       72
   38.965       75
   38.980       79
   38.995       66
   39.010       78
   39.025       60
   39.040       76
   39.055       65
   39.070       62
   39.085       59
   39.100       60
   39.115       53
   39.130       62
   39.145       63
   39.160       70
   39.175       68
   39.190       55
   39.205       54
   39.220       68
   39.235       55
   39.250       58
   39.265       54
   39.280       60
   39.295       68
   39.310       68
   39.325       63
   39.340       49
   39.355       51
   39.370       51
   39.385       48
   39.400       69
   39.415       66
   39.430       57
   39.445       63
   39.460       53
   39.475       60
   39.490       65
   39.505       73
   39.520       68
   39.535       53
   39.550       55
   39.565       56
   39.580       46
   39.595       54
   39.610       55
   39.625       58
   39.640       60
   39.655       57
   39.670       66
   39.685       57
   39.700       66
   39.715       59
   39.730       65
   39.745       76
   39.760       63
   39.775       66
   39.790       68
   39.805       72
   39.820       66
   39.835       73
   39.850       79
   39.865       74
   39.880       65
   39.895       64
   39.910       74
   39.925       74
   39.940       59
   39.955       69
   39.970       76
   39.985       65
   40.000       60
   40.015       57
   40.030       59
   40.045       66
   40.060       58
   40.075       60
   40.090       55
   40.105       58
   40.120       77
   40.135       66
   40.150       62
   40.165       53
   40.180       61
   40.195       60
   40.210       54
   40.225       57
   40.240       54
   40.255       65
   40.270       61
   40.285       51
   40.300       68
   40.315       59
   40.330       58
   40.345       68
   40.360       77
   40.375       75
   40.390       60
   40.405       70
   40.420       65
   40.435       72
   40.450       74
   40.465       76
   40.480       72
   40.495       74
   40.510       67
   40.525       68
   40.540       80
   40.555       79
   40.570       66
   40.585       63
   40.600       65
   40.615       63
   40.630       65
   40.645       74
   40.660       64
   40.675       61
   40.690       59
   40.705       57
   40.720       75
   40.735       76
   40.750       70
   40.765       90
   40.780       64
   40.795       64
   40.810       80
   40.825       82
   40.840       73
   40.855       72
   40.870       69
   40.885       72
   40.900       71
   40.915       65
   40.930       59
   40.945       58
   40.960       63
   40.975       59
   40.990       61
   41.005       63
   41.020       58
   41.035       50
   41.050       62
   41.065       57
   41.080       69
   41.095       67
   41.110       62
   41.125       53
   41.140       55
   41.155       60
   41.170       69
   41.185       59
   41.200       61
   41.215       60
   41.230       64
   41.245       57
   41.260       59
   41.275       61
   41.290       57
   41.305       61
   41.320       67
   41.335       57
   41.350       57
   41.365       61
   41.380       58
   41.395       51
   41.410       59
   41.425       56
   41.440       56
   41.455       67
   41.470       53
   41.485       57
   41.500       62
   41.515       50
   41.530       54
   41.545       62
   41.560       54
   41.575       48
   41.590       41
   41.605       49
   41.620       52
   41.635       53
   41.650       54
   41.665       61
   41.680       66
   41.695       61
   41.710       65
   41.725       55
   41.740       63
   41.755       52
   41.770       65
   41.785       64
   41.800       64
   41.815       64
   41.830       63
   41.845       52
   41.860       58
   41.875       62
   41.890       51
   41.905       49
   41.920       60
   41.935       55
   41.950       71
   41.965       69
   41.980       60
   41.995       50
   42.010       50
   42.025       60
   42.040       59
   42.055       68
   42.070       66
   42.085       68
   42.100       69
   42.115       54
   42.130       50
   42.145       64
   42.160       61
   42.175       61
   42.190       53
   42.205       66
   42.220       71
   42.235       55
   42.250       56
   42.265       59
   42.280       59
   42.295       62
   42.310       59
   42.325       60
   42.340       70
   42.355       67
   42.370       63
   42.385       66
   42.400       63
   42.415       63
   42.430       61
   42.445       62
   42.460       66
   42.475       70
   42.490       63
   42.505       74
   42.520       65
   42.535       52
   42.550       55
   42.565       62
   42.580       62
   42.595       52
   42.610       58
   42.625       56
   42.640       48
   42.655       63
   42.670       48
   42.685       56
   42.700       49
   42.715       50
   42.730       59
   42.745       64
   42.760       54
   42.775       61
   42.790       54
   42.805       44
   42.820       62
   42.835       59
   42.850       62
   42.865       56
   42.880       46
   42.895       63
   42.910       45
   42.925       54
   42.940       52
   42.955       46
   42.970       60
   42.985       56
   43.000       59
   43.015       58
   43.030       65
   43.045       69
   43.060       56
   43.075       60
   43.090       60
   43.105       54
   43.120       63
   43.135       59
   43.150       53
   43.165       55
   43.180       62
   43.195       64
   43.210       70
   43.225       62
   43.240       56
   43.255       57
   43.270       62
   43.285       60
   43.300       65
   43.315       59
   43.330       61
   43.345       59
   43.360       58
   43.375       65
   43.390       62
   43.405       68
   43.420       54
   43.435       47
   43.450       46
   43.465       40
   43.480       37
   43.495       72
   43.510       62
   43.525       49
   43.540       58
   43.555       58
   43.570       58
   43.585       50
   43.600       62
   43.615       68
   43.630       62
   43.645       69
   43.660       59
   43.675       51
   43.690       63
   43.705       49
   43.720       52
   43.735       58
   43.750       74
   43.765       57
   43.780       62
   43.795       52
   43.810       54
   43.825       55
   43.840       50
   43.855       56
   43.870       52
   43.885       56
   43.900       63
   43.915       60
   43.930       60
   43.945       59
   43.960       55
   43.975       56
   43.990       52
   44.005       58
   44.020       54
   44.035       59
   44.050       65
   44.065       66
   44.080       74
   44.095       69
   44.110       71
   44.125       69
   44.140       62
   44.155       58
   44.170       52
   44.185       63
   44.200       66
   44.215       65
   44.230       67
   44.245       66
   44.260       67
   44.275       75
   44.290       61
   44.305       54
   44.320       52
   44.335       71
   44.350       53
   44.365       50
   44.380       53
   44.395       59
   44.410       66
   44.425       67
   44.440       64
   44.455       74
   44.470       48
   44.485       60
   44.500       68
   44.515       61
   44.530       56
   44.545       67
   44.560       76
   44.575       67
   44.590       68
   44.605       56
   44.620       57
   44.635       63
   44.650       49
   44.665       62
   44.680       59
   44.695       68
   44.710       60
   44.725       62
   44.740       79
   44.755       79
   44.770       84
   44.785       85
   44.800       63
   44.815       58
   44.830       48
   44.845       50
   44.860       48
   44.875       48
   44.890       52
   44.905       57
   44.920       69
   44.935       66
   44.950       68
   44.965       84
   44.980       78
   44.995       71
   45.010       82
   45.025       80
   45.040       76
   45.055       66
   45.070       80
   45.085       77
   45.100       62
   45.115       73
   45.130       67
   45.145       87
   45.160       90
   45.175       75
   45.190       70
   45.205       72
   45.220       63
   45.235       72
   45.250       64
   45.265       72
   45.280       75
   45.295       63
   45.310       63
   45.325       70
   45.340       68
   45.355       65
   45.370       55
   45.385       56
   45.400       66
   45.415       60
   45.430       54
   45.445       56
   45.460       56
   45.475       69
   45.490       70
   45.505       62
   45.520       59
   45.535       59
   45.550       49
   45.565       59
   45.580       63
   45.595       66
   45.610       58
   45.625       62
   45.640       53
   45.655       63
   45.670       53
   45.685       58
   45.700       57
   45.715       64
   45.730       61
   45.745       56
   45.760       58
   45.775       49
   45.790       52
   45.805       54
   45.820       52
   45.835       46
   45.850       51
   45.865       48
   45.880       61
   45.895       60
   45.910       55
   45.925       58
   45.940       62
   45.955       60
   45.970       70
   45.985       64
