    4.000      202
    4.015      225
    4.030      221
    4.045      207
    4.060      207
    4.075      189
    4.090      193
    4.105      205
    4.120      185
    4.135      218
    4.150      197
    4.165      191
    4.180      193
    4.195      203
    4.210      228
    4.225      191
    4.240      202
    4.255      206
    4.270      203
    4.285      195
    4.300      176
    4.315      200
    4.330      219
    4.345      216
    4.360      187
    4.375      165
    4.390      198
    4.405      190
    4.420      207
    4.435      207
    4.450      223
    4.465      189
    4.480      186
    4.495      177
    4.510      172
    4.525      189
    4.540      205
    4.555      206
    4.570      207
    4.585      204
    4.600      218
    4.615      205
    4.630      204
    4.645      210
    4.660      204
    4.675      178
    4.690      200
    4.705      192
    4.720      182
    4.735      178
    4.750      182
    4.765      199
    4.780      184
    4.795      166
    4.810      172
    4.825      204
    4.840      180
    4.855      196
    4.870      189
    4.885      170
    4.900      166
    4.915      197
    4.930      193
    4.945      187
    4.960      189
    4.975      188
    4.990      202
    5.005      196
    5.020      183
    5.035      192
    5.050      191
    5.065      201
    5.080      191
    5.095      192
    5.110      192
    5.125      192
    5.140      173
    5.155      179
    5.170      210
    5.185      198
    5.200      183
    5.215      180
    5.230      193
    5.245      191
    5.260      182
    5.275      191
    5.290      197
    5.305      184
    5.320      177
    5.335      205
    5.350      208
    5.365      192
    5.380      198
    5.395      199
    5.410      184
    5.425      197
    5.440      193
    5.455      181
    5.470      200
    5.485      201
    5.500      185
    5.515      187
    5.530      187
    5.545      185
    5.560      189
    5.575      181
    5.590      159
    5.605      162
    5.620      180
    5.635      190
    5.650      183
    5.665      198
    5.680      189
    5.695      183
    5.710      190
    5.725      219
    5.740      203
    5.755      179
    5.770      177
    5.785      176
    5.800      182
    5.815      187
    5.830      163
    5.845      184
    5.860      195
    5.875      186
    5.890      197
    5.905      211
    5.920      203
    5.935      206
    5.950      205
    5.965      196
    5.980      181
    5.995      198
    6.010      192
    6.025      195
    6.040      191
    6.055      185
    6.070      175
    6.085      165
    6.100      170
    6.115      161
    6.130      173
    6.145      200
    6.160      198
    6.175      190
    6.190      206
    6.205      215
    6.220      204
    6.235      188
    6.250      188
    6.265      221
    6.280      214
    6.295      206
    6.310      217
    6.325      255
    6.340      230
    6.355      237
    6.370      236
    6.385      261
    6.400      264
    6.415      252
    6.430      274
    6.445      300
    6.460      309
    6.475      319
    6.490      360
    6.505      365
    6.520      408
    6.535      435
    6.550      411
    6.565      443
    6.580      435
    6.595      435
    6.610      404
    6.625      278
    6.640      239
    6.655      214
    6.670      192
    6.685      177
    6.700      168
    6.715      164
    6.730      179
    6.745      174
    6.760      199
    6.775      180
    6.790      196
    6.805      206
    6.820      181
    6.835      154
    6.850      180
    6.865      193
    6.880      196
    6.895      199
    6.910      175
    6.925      187
    6.940      202
    6.955      172
    6.970      201
    6.985      203
    7.000      211
    7.015      199
    7.030      239
    7.045      239
    7.060      244
    7.075      250
    7.090      279
    7.105      298
    7.120      299
    7.135      236
    7.150      208
    7.165      199
    7.180      175
    7.195      160
    7.210      175
    7.225      185
    7.240      193
    7.255      186
    7.270      184
    7.285      174
    7.300      178
    7.315      161
    7.330      175
    7.345      176
    7.360      173
    7.375      163
    7.390      172
    7.405      198
    7.420      195
    7.435      189
    7.450      187
    7.465      188
    7.480      178
    7.495      212
    7.510      210
    7.525      233
    7.540      226
    7.555      222
    7.570      214
    7.585      238
    7.600      224
    7.615      228
    7.630      199
    7.645      191
    7.660      191
    7.675      177
    7.690      187
    7.705      200
    7.720      189
    7.735      166
    7.750      185
    7.765      174
    7.780      181
    7.795      164
    7.810      158
    7.825      167
    7.840      173
    7.855      166
    7.870      188
    7.885      173
    7.900      176
    7.915      161
    7.930      160
    7.945      166
    7.960      178
    7.975      173
    7.990      174
    8.005      177
    8.020      165
    8.035      162
    8.050      167
    8.065      166
    8.080      179
    8.095      176
    8.110      187
    8.125      165
    8.140      193
    8.155      197
    8.170      202
    8.185      182
    8.200      173
    8.215      183
    8.230      184
    8.245      172
    8.260      178
    8.275      200
    8.290      193
    8.305      180
    8.320      189
    8.335      176
    8.350      173
    8.365      191
    8.380      185
    8.395      172
    8.410      176
    8.425      185
    8.440      188
    8.455      187
    8.470      194
    8.485      184
    8.500      187
    8.515      178
    8.530      192
    8.545      196
    8.560      177
    8.575      152
    8.590      195
    8.605      194
    8.620      170
    8.635      192
    8.650      172
    8.665      178
    8.680      184
    8.695      193
    8.710      175
    8.725      180
    8.740      191
    8.755      176
    8.770      180
    8.785      166
    8.800      198
    8.815      185
    8.830      180
    8.845      171
    8.860      205
    8.875      187
    8.890      175
    8.905      161
    8.920      183
    8.935      198
    8.950      188
    8.965      195
    8.980      191
    8.995      187
    9.010      166
    9.025      173
    9.040      182
    9.055      191
    9.070      187
    9.085      179
    9.100      196
    9.115      186
    9.130      189
    9.145      198
    9.160      179
    9.175      189
    9.190      181
    9.205      184
    9.220      204
    9.235      199
    9.250      182
    9.265      174
    9.280      192
    9.295      204
    9.310      202
    9.325      207
    9.340      191
    9.355      210
    9.370      197
    9.385      195
    9.400      177
    9.415      193
    9.430      181
    9.445      188
    9.460      182
    9.475      186
    9.490      200
    9.505      191
    9.520      193
    9.535      196
    9.550      192
    9.565      207
    9.580      229
    9.595      225
    9.610      225
    9.625      211
    9.640      243
    9.655      200
    9.670      250
    9.685      270
    9.700      257
    9.715      248
    9.730      216
    9.745      215
    9.760      183
    9.775      207
    9.790      190
    9.805      192
    9.820      176
    9.835      191
    9.850      166
    9.865      166
    9.880      184
    9.895      195
    9.910      214
    9.925      184
    9.940      174
    9.955      194
    9.970      192
    9.985      177
   10.000      190
   10.015      165
   10.030      194
   10.045      198
   10.060      188
   10.075      186
   10.090      199
   10.105      173
   10.120      181
   10.135      191
   10.150      223
   10.165      236
   10.180      223
   10.195      225
   10.210      237
   10.225      246
   10.240      232
   10.255      247
   10.270      238
   10.285      257
   10.300      271
   10.315      302
   10.330      334
   10.345      391
   10.360      408
   10.375      408
   10.390      346
   10.405      365
   10.420      338
   10.435      286
   10.450      267
   10.465      234
   10.480      190
   10.495      197
   10.510      186
   10.525      195
   10.540      189
   10.555      214
   10.570      196
   10.585      201
   10.600      216
   10.615      206
   10.630      196
   10.645      213
   10.660      219
   10.675      236
   10.690      232
   10.705      237
   10.720      236
   10.735      254
   10.750      278
   10.765      241
   10.780      239
   10.795      234
   10.810      231
   10.825      224
   10.840      187
   10.855      183
   10.870      188
   10.885      189
   10.900      193
   10.915      202
   10.930      196
   10.945      223
   10.960      243
   10.975      226
   10.990      221
   11.005      213
   11.020      226
   11.035      237
   11.050      273
   11.065      330
   11.080      298
   11.095      327
   11.110      353
   11.125      382
   11.140      350
   11.155      276
   11.170      238
   11.185      224
   11.200      223
   11.215      197
   11.230      209
   11.245      227
   11.260      243
   11.275      268
   11.290      269
   11.305      295
   11.320      258
   11.335      227
   11.350      205
   11.365      181
   11.380      179
   11.395      165
   11.410      160
   11.425      162
   11.440      158
   11.455      162
   11.470      164
   11.485      166
   11.500      165
   11.515      161
   11.530      172
   11.545      164
   11.560      166
   11.575      187
   11.590      170
   11.605      161
   11.620      208
   11.635      197
   11.650      204
   11.665      205
   11.680      197
   11.695      212
   11.710      207
   11.725      243
   11.740      293
   11.755      298
   11.770      294
   11.785      308
   11.800      275
   11.815      230
   11.830      213
   11.845      198
   11.860      213
   11.875      210
   11.890      242
   11.905      248
   11.920      266
   11.935      262
   11.950      234
   11.965      206
   11.980      208
   11.995      164
   12.010      167
   12.025      184
   12.040      187
   12.055      170
   12.070      194
   12.085      164
   12.100      161
   12.115      160
   12.130      168
   12.145      164
   12.160      174
   12.175      153
   12.190      172
   12.205      157
   12.220      177
   12.235      172
   12.250      189
   12.265      203
   12.280      210
   12.295      193
   12.310      232
   12.325      257
   12.340      270
   12.355      299
   12.370      358
   12.385      398
   12.400      469
   12.415      527
   12.430      624
   12.445      762
   12.460      877
   12.475     1015
   12.490     1226
   12.505     1454
   12.520     1910
   12.535     2039
   12.550     1797
   12.565     1385
   12.580     1152
   12.595     1164
   12.610     1301
   12.625     1243
   12.640     1205
   12.655      967
   12.670      665
   12.685      413
   12.700      300
   12.715      245
   12.730      260
   12.745      250
   12.760      255
   12.775      225
   12.790      234
   12.805      284
   12.820      301
   12.835      313
   12.850      369
   12.865      369
   12.880      471
   12.895      577
   12.910      611
   12.925      700
   12.940      676
   12.955      579
   12.970      536
   12.985      557
   13.000      627
   13.015      718
   13.030      857
   13.045     1056
   13.060     1263
   13.075     1716
   13.090     2127
   13.105     2176
   13.120     1873
   13.135     1569
   13.150     1577
   13.165     1828
   13.180     2150
   13.195     2496
   13.210     3221
   13.225     3838
   13.240     3447
   13.255     2335
   13.270     1292
   13.285      662
   13.300      479
   13.315      424
   13.330      394
   13.345      407
   13.360      412
   13.375      459
   13.390      491
   13.405      582
   13.420      665
   13.435      740
   13.450      793
   13.465      807
   13.480      837
   13.495      869
   13.510      695
   13.525      528
   13.540      363
   13.555      305
   13.570      246
   13.585      246
   13.600      268
   13.615      284
   13.630      283
   13.645      268
   13.660      291
   13.675      341
   13.690      405
   13.705      482
   13.720      544
   13.735      491
   13.750      386
   13.765      281
   13.780      235
   13.795      199
   13.810      186
   13.825      163
   13.840      151
   13.855      147
   13.870      163
   13.885      162
   13.900      153
   13.915      160
   13.930      165
   13.945      174
   13.960      178
   13.975      179
   13.990      180
   14.005      200
   14.020      193
   14.035      201
   14.050      204
   14.065      223
   14.080      226
   14.095      253
   14.110      306
   14.125      330
   14.140      378
   14.155      466
   14.170      504
   14.185      508
   14.200      432
   14.215      393
   14.230      422
   14.245      467
   14.260      516
   14.275      577
   14.290      582
   14.305      596
   14.320      677
   14.335      733
   14.350      855
   14.365     1044
   14.380     1028
   14.395      813
   14.410      550
   14.425      359
   14.440      269
   14.455      220
   14.470      201
   14.485      169
   14.500      141
   14.515      150
   14.530      159
   14.545      168
   14.560      161
   14.575      155
   14.590      146
   14.605      164
   14.620      175
   14.635      168
   14.650      155
   14.665      160
   14.680      169
   14.695      179
   14.710      178
   14.725      207
   14.740      209
   14.755      221
   14.770      260
   14.785      307
   14.800      316
   14.815      376
   14.830      473
   14.845      569
   14.860      673
   14.875      794
   14.890      883
   14.905      982
   14.920      984
   14.935     1201
   14.950     1571
   14.965     1867
   14.980     1691
   14.995     1264
   15.010      753
   15.025      446
   15.040      369
   15.055      335
   15.070      326
   15.085      330
   15.100      326
   15.115      352
   15.130      429
   15.145      435
   15.160      473
   15.175      580
   15.190      605
   15.205      583
   15.220      513
   15.235      471
   15.250      427
   15.265      427
   15.280      409
   15.295      305
   15.310      279
   15.325      272
   15.340      299
   15.355      310
   15.370      323
   15.385      357
   15.400      407
   15.415      453
   15.430      523
   15.445      661
   15.460      807
   15.475      769
   15.490      614
   15.505      418
   15.520      350
   15.535      334
   15.550      370
   15.565      371
   15.580      397
   15.595      447
   15.610      526
   15.625      649
   15.640      731
   15.655      752
   15.670      621
   15.685      507
   15.700      362
   15.715      256
   15.730      227
   15.745      202
   15.760      195
   15.775      209
   15.790      231
   15.805      246
   15.820      241
   15.835      249
   15.850      307
   15.865      329
   15.880      362
   15.895      384
   15.910      451
   15.925      507
   15.940      629
   15.955      761
   15.970      935
   15.985     1043
   16.000      927
   16.015      694
   16.030      495
   16.045      363
   16.060      319
   16.075      301
   16.090      312
   16.105      355
   16.120      410
   16.135      468
   16.150      503
   16.165      677
   16.180      667
   16.195      596
   16.210      593
   16.225      596
   16.240      742
   16.255      899
   16.270     1089
   16.285     1244
   16.300     1128
   16.315      888
   16.330      724
   16.345      647
   16.360      683
   16.375      753
   16.390      930
   16.405     1082
   16.420     1187
   16.435     1023
   16.450      885
   16.465      767
   16.480      685
   16.495      757
   16.510      796
   16.525      914
   16.540     1171
   16.555     1326
   16.570     1257
   16.585     1048
   16.600      872
   16.615      836
   16.630      862
   16.645      884
   16.660      914
   16.675      952
   16.690      875
   16.705      693
   16.720      472
   16.735      383
   16.750      324
   16.765      310
   16.780      304
   16.795      342
   16.810      353
   16.825      384
   16.840      407
   16.855      465
   16.870      554
   16.885      632
   16.900      674
   16.915      576
   16.930      438
   16.945      356
   16.960      305
   16.975      307
   16.990      333
   17.005      346
   17.020      394
   17.035      383
   17.050      434
   17.065      526
   17.080      588
   17.095      556
   17.110      522
   17.125      438
   17.140      385
   17.155      359
   17.170      363
   17.185      354
   17.200      336
   17.215      311
   17.230      335
   17.245      351
   17.260      389
   17.275      444
   17.290      482
   17.305      596
   17.320      658
   17.335      606
   17.350      438
   17.365      296
   17.380      230
   17.395      197
   17.410      198
   17.425      197
   17.440      193
   17.455      212
   17.470      243
   17.485      252
   17.500      249
   17.515      283
   17.530      318
   17.545      322
   17.560      300
   17.575      337
   17.590      373
   17.605      423
   17.620      387
   17.635      281
   17.650      220
   17.665      227
   17.680      206
   17.695      193
   17.710      180
   17.725      173
   17.740      162
   17.755      161
   17.770      147
   17.785      157
   17.800      159
   17.815      132
   17.830      154
   17.845      153
   17.860      137
   17.875      152
   17.890      147
   17.905      144
   17.920      144
   17.935      158
   17.950      164
   17.965      169
   17.980      162
   17.995      149
   18.010      197
   18.025      234
   18.040      239
   18.055      252
   18.070      300
   18.085      306
   18.100      366
   18.115      333
   18.130      412
   18.145      441
   18.160      441
   18.175      364
   18.190      290
   18.205      228
   18.220      179
   18.235      174
   18.250      181
   18.265      191
   18.280      211
   18.295      201
   18.310      221
   18.325      261
   18.340      281
   18.355      335
   18.370      426
   18.385      469
   18.400      567
   18.415      584
   18.430      544
   18.445      487
   18.460      460
   18.475      548
   18.490      630
   18.505      747
   18.520      790
   18.535      755
   18.550      667
   18.565      548
   18.580      413
   18.595      348
   18.610      302
   18.625      301
   18.640      305
   18.655      317
   18.670      339
   18.685      375
   18.700      406
   18.715      474
   18.730      564
   18.745      582
   18.760      499
   18.775      388
   18.790      359
   18.805      381
   18.820      364
   18.835      311
   18.850      239
   18.865      191
   18.880      186
   18.895      150
   18.910      143
   18.925      149
   18.940      165
   18.955      146
   18.970      155
   18.985      137
   19.000      131
   19.015      148
   19.030      134
   19.045      159
   19.060      158
   19.075      140
   19.090      139
   19.105      128
   19.120      155
   19.135      142
   19.150      139
   19.165      145
   19.180      144
   19.195      148
   19.210      142
   19.225      143
   19.240      148
   19.255      135
   19.270      154
   19.285      126
   19.300      159
   19.315      165
   19.330      193
   19.345      194
   19.360      253
   19.375      268
   19.390      321
   19.405      362
   19.420      397
   19.435      423
   19.450      436
   19.465      453
   19.480      445
   19.495      388
   19.510      335
   19.525      277
   19.540      266
   19.555      276
   19.570      301
   19.585      303
   19.600      342
   19.615      393
   19.630      448
   19.645      592
   19.660      703
   19.675      876
   19.690     1053
   19.705     1210
   19.720     1203
   19.735     1069
   19.750      871
   19.765      688
   19.780      625
   19.795      664
   19.810      722
   19.825      866
   19.840      866
   19.855      782
   19.870      733
   19.885      627
   19.900      508
   19.915      438
   19.930      333
   19.945      311
   19.960      283
   19.975      265
   19.990      270
   20.005      285
   20.020      317
   20.035      366
   20.050      343
   20.065      347
   20.080      302
   20.095      239
   20.110      203
   20.125      172
   20.140      152
   20.155      165
   20.170      183
   20.185      169
   20.200      143
   20.215      138
   20.230      150
   20.245      154
   20.260      149
   20.275      149
   20.290      162
   20.305      150
   20.320      159
   20.335      179
   20.350      185
   20.365      179
   20.380      199
   20.395      197
   20.410      195
   20.425      202
   20.440      213
   20.455      184
   20.470      185
   20.485      202
   20.500      229
   20.515      232
   20.530      267
   20.545      338
   20.560      379
   20.575      412
   20.590      521
   20.605      422
   20.620      455
   20.635      425
   20.650      423
   20.665      451
   20.680      506
   20.695      498
   20.710      368
   20.725      291
   20.740      242
   20.755      211
   20.770      198
   20.785      228
   20.800      229
   20.815      242
   20.830      253
   20.845      214
   20.860      181
   20.875      218
   20.890      216
   20.905      256
   20.920      237
   20.935      218
   20.950      224
   20.965      203
   20.980      181
   20.995      183
   21.010      187
   21.025      200
   21.040      228
   21.055      252
   21.070      244
   21.085      216
   21.100      185
   21.115      180
   21.130      151
   21.145      153
   21.160      164
   21.175      159
   21.190      150
   21.205      148
   21.220      181
   21.235      189
   21.250      185
   21.265      234
   21.280      241
   21.295      249
   21.310      290
   21.325      342
   21.340      394
   21.355      479
   21.370      584
   21.385      688
   21.400      686
   21.415      664
   21.430      588
   21.445      497
   21.460      462
   21.475      468
   21.490      543
   21.505      619
   21.520      728
   21.535      835
   21.550      998
   21.565     1314
   21.580     1659
   21.595     1815
   21.610     1686
   21.625     1248
   21.640      911
   21.655      645
   21.670      566
   21.685      510
   21.700      497
   21.715      511
   21.730      465
   21.745      388
   21.760      298
   21.775      229
   21.790      204
   21.805      212
   21.820      173
   21.835      179
   21.850      164
   21.865      172
   21.880      175
   21.895      177
   21.910      184
   21.925      194
   21.940      197
   21.955      195
   21.970      209
   21.985      219
   22.000      215
   22.015      203
   22.030      204
   22.045      217
   22.060      211
   22.075      215
   22.090      213
   22.105      222
   22.120      261
   22.135      245
   22.150      280
   22.165      314
   22.180      345
   22.195      392
   22.210      398
   22.225      369
   22.240      293
   22.255      251
   22.270      240
   22.285      232
   22.300      233
   22.315      276
   22.330      325
   22.345      375
   22.360      440
   22.375      509
   22.390      577
   22.405      613
   22.420      509
   22.435      447
   22.450      361
   22.465      304
   22.480      290
   22.495      308
   22.510      329
   22.525      364
   22.540      385
   22.555      452
   22.570      481
   22.585      539
   22.600      617
   22.615      660
   22.630      639
   22.645      614
   22.660      547
   22.675      509
   22.690      515
   22.705      445
   22.720      379
   22.735      328
   22.750      276
   22.765      272
   22.780      285
   22.795      294
   22.810      317
   22.825      365
   22.840      414
   22.855      426
   22.870      369
   22.885      302
   22.900      298
   22.915      267
   22.930      276
   22.945      289
   22.960      341
   22.975      352
   22.990      350
   23.005      344
   23.020      274
   23.035      232
   23.050      199
   23.065      199
   23.080      204
   23.095      202
   23.110      193
   23.125      219
   23.140      236
   23.155      271
   23.170      292
   23.185      331
   23.200      289
   23.215      283
   23.230      242
   23.245      177
   23.260      161
   23.275      159
   23.290      146
   23.305      148
   23.320      151
   23.335      133
   23.350      152
   23.365      159
   23.380      164
   23.395      161
   23.410      167
   23.425      171
   23.440      159
   23.455      138
   23.470      126
   23.485      137
   23.500      152
   23.515      140
   23.530      128
   23.545      131
   23.560      149
   23.575      161
   23.590      189
   23.605      213
   23.620      195
   23.635      188
   23.650      179
   23.665      159
   23.680      206
   23.695      214
   23.710      233
   23.725      226
   23.740      286
   23.755      315
   23.770      355
   23.785      299
   23.800      238
   23.815      216
   23.830      177
   23.845      192
   23.860      183
   23.875      162
   23.890      158
   23.905      165
   23.920      175
   23.935      208
   23.950      259
   23.965      290
   23.980      357
   23.995      378
   24.010      383
   24.025      384
   24.040      345
   24.055      287
   24.070      229
   24.085      218
   24.100      222
   24.115      224
   24.130      220
   24.145      227
   24.160      230
   24.175      217
   24.190      224
   24.205      236
   24.220      248
   24.235      258
   24.250      244
   24.265      229
   24.280      198
   24.295      188
   24.310      195
   24.325      189
   24.340      186
   24.355      176
   24.370      173
   24.385      176
   24.400      185
   24.415      185
   24.430      203
   24.445      189
   24.460      178
   24.475      157
   24.490      177
   24.505      168
   24.520      174
   24.535      171
   24.550      143
   24.565      183
   24.580      164
   24.595      152
   24.610      157
   24.625      185
   24.640      191
   24.655      190
   24.670      234
   24.685      275
   24.700      310
   24.715      304
   24.730      363
   24.745      365
   24.760      334
   24.775      292
   24.790      273
   24.805      280
   24.820      292
   24.835      255
   24.850      296
   24.865      287
   24.880      300
   24.895      340
   24.910      336
   24.925      337
   24.940      339
   24.955      315
   24.970      235
   24.985      217
   25.000      186
   25.015      152
   25.030      163
   25.045      143
   25.060      147
   25.075      157
   25.090      170
   25.105      177
   25.120      194
   25.135      219
   25.150      254
   25.165      276
   25.180      294
   25.195      283
   25.210      271
   25.225      271
   25.240      239
   25.255      253
   25.270      231
   25.285      250
   25.300      265
   25.315      291
   25.330      302
   25.345      333
   25.360      384
   25.375      466
   25.390      528
   25.405      542
   25.420      557
   25.435      579
   25.450      535
   25.465      509
   25.480      417
   25.495      333
   25.510      274
   25.525      242
   25.540      232
   25.555      266
   25.570      269
   25.585      321
   25.600      345
   25.615      337
   25.630      368
   25.645      346
   25.660      320
   25.675      244
   25.690      212
   25.705      213
   25.720      196
   25.735      189
   25.750      197
   25.765      208
   25.780      209
   25.795      223
   25.810      232
   25.825      246
   25.840      276
   25.855      282
   25.870      274
   25.885      303
   25.900      292
   25.915      276
   25.930      244
   25.945      208
   25.960      181
   25.975      186
   25.990      182
   26.005      184
   26.020      188
   26.035      179
   26.050      180
   26.065      187
   26.080      201
   26.095      205
   26.110      210
   26.125      206
   26.140      183
   26.155      158
   26.170      156
   26.185      160
   26.200      143
   26.215      150
   26.230      157
   26.245      156
   26.260      143
   26.275      150
   26.290      167
   26.305      176
   26.320      193
   26.335      204
   26.350      231
   26.365      263
   26.380      273
   26.395      287
   26.410      244
   26.425      201
   26.440      170
   26.455      181
   26.470      167
   26.485      170
   26.500      176
   26.515      185
   26.530      194
   26.545      196
   26.560      229
   26.575      252
   26.590      307
   26.605      371
   26.620      434
   26.635      511
   26.650      566
   26.665      542
   26.680      529
   26.695      538
   26.710      494
   26.725      500
   26.740      409
   26.755      381
   26.770      297
   26.785      229
   26.800      240
   26.815      206
   26.830      189
   26.845      185
   26.860      224
   26.875      202
   26.890      191
   26.905      207
   26.920      206
   26.935      208
   26.950      235
   26.965      214
   26.980      215
   26.995      224
   27.010      196
   27.025      166
   27.040      174
   27.055      189
   27.070      170
   27.085      179
   27.100      199
   27.115      189
   27.130      210
   27.145      206
   27.160      224
   27.175      283
   27.190      303
   27.205      319
   27.220      362
   27.235      404
   27.250      429
   27.265      432
   27.280      405
   27.295      398
   27.310      413
   27.325      437
   27.340      437
   27.355      418
   27.370      441
   27.385      464
   27.400      439
   27.415      424
   27.430      350
   27.445      327
   27.460      285
   27.475      250
   27.490      232
   27.505      238
   27.520      238
   27.535      236
   27.550      259
   27.565      263
   27.580      266
   27.595      296
   27.610      307
   27.625      284
   27.640      264
   27.655      258
   27.670      227
   27.685      216
   27.700      171
   27.715      171
   27.730      182
   27.745      169
   27.760      174
   27.775      186
   27.790      193
   27.805      239
   27.820      236
   27.835      269
   27.850      305
   27.865      330
   27.880      316
   27.895      300
   27.910      281
   27.925      251
   27.940      254
   27.955      242
   27.970      233
   27.985      224
   28.000      239
   28.015      254
   28.030      284
   28.045      268
   28.060      288
   28.075      263
   28.090      241
   28.105      229
   28.120      217
   28.135      235
   28.150      214
   28.165      209
   28.180      203
   28.195      183
   28.210      168
   28.225      155
   28.240      170
   28.255      168
   28.270      157
   28.285      169
   28.300      148
   28.315      155
   28.330      168
   28.345      180
   28.360      177
   28.375      200
   28.390      218
   28.405      252
   28.420      255
   28.435      234
   28.450      251
   28.465      206
   28.480      221
   28.495      201
   28.510      203
   28.525      202
   28.540      210
   28.555      232
   28.570      273
   28.585      275
   28.600      297
   28.615      278
   28.630      285
   28.645      280
   28.660      294
   28.675      302
   28.690      293
   28.705      274
   28.720      253
   28.735      237
   28.750      244
   28.765      256
   28.780      248
   28.795      248
   28.810      260
   28.825      231
   28.840      220
   28.855      209
   28.870      203
   28.885      211
   28.900      207
   28.915      214
   28.930      221
   28.945      233
   28.960      221
   28.975      209
   28.990      204
   29.005      214
   29.020      193
   29.035      190
   29.050      183
   29.065      182
   29.080      163
   29.095      174
   29.110      182
   29.125      170
   29.140      172
   29.155      191
   29.170      205
   29.185      229
   29.200      238
   29.215      242
   29.230      241
   29.245      244
   29.260      256
   29.275      270
   29.290      263
   29.305      267
   29.320      302
   29.335      338
   29.350      384
   29.365      394
   29.380      391
   29.395      366
   29.410      314
   29.425      282
   29.440      246
   29.455      245
   29.470      243
   29.485      225
   29.500      218
   29.515      246
   29.530      251
   29.545      236
   29.560      236
   29.575      256
   29.590      233
   29.605      207
   29.620      214
   29.635      213
   29.650      170
   29.665      156
   29.680      164
   29.695      159
   29.710      178
   29.725      166
   29.740      181
   29.755      202
   29.770      188
   29.785      153
   29.800      177
   29.815      164
   29.830      181
   29.845      192
   29.860      175
   29.875      183
   29.890      155
   29.905      165
   29.920      194
   29.935      167
   29.950      172
   29.965      170
   29.980      185
   29.995      187
   30.010      198
   30.025      194
   30.040      190
   30.055      178
   30.070      190
   30.085      166
   30.100      184
   30.115      183
   30.130      190
   30.145      193
   30.160      181
   30.175      196
   30.190      210
   30.205      211
   30.220      224
   30.235      234
   30.250      226
   30.265      222
   30.280      218
   30.295      239
   30.310      273
   30.325      268
   30.340      260
   30.355      234
   30.370      214
   30.385      203
   30.400      172
   30.415      181
   30.430      143
   30.445      148
   30.460      155
   30.475      165
   30.490      185
   30.505      157
   30.520      147
   30.535      163
   30.550      161
   30.565      206
   30.580      223
   30.595      241
   30.610      246
   30.625      259
   30.640      282
   30.655      302
   30.670      299
   30.685      314
   30.700      313
   30.715      276
   30.730      246
   30.745      227
   30.760      207
   30.775      219
   30.790      234
   30.805      244
   30.820      233
   30.835      209
   30.850      194
   30.865      186
   30.880      200
   30.895      190
   30.910      187
   30.925      191
   30.940      214
   30.955      191
   30.970      177
   30.985      179
   31.000      217
   31.015      216
   31.030      236
   31.045      247
   31.060      235
   31.075      228
   31.090      242
   31.105      232
   31.120      215
   31.135      215
   31.150      228
   31.165      205
   31.180      186
   31.195      195
   31.210      242
   31.225      244
   31.240      284
   31.255      287
   31.270      310
   31.285      288
   31.300      232
   31.315      182
   31.330      191
   31.345      220
   31.360      236
   31.375      243
   31.390      272
   31.405      272
   31.420      272
   31.435      278
   31.450      269
   31.465      247
   31.480      250
   31.495      278
   31.510      296
   31.525      335
   31.540      379
   31.555      406
   31.570      391
   31.585      352
   31.600      304
   31.615      280
   31.630      266
   31.645      259
   31.660      254
   31.675      244
   31.690      245
   31.705      251
   31.720      242
   31.735      251
   31.750      265
   31.765      281
   31.780      255
   31.795      261
   31.810      223
   31.825      221
   31.840      206
   31.855      196
   31.870      189
   31.885      179
   31.900      192
   31.915      179
   31.930      158
   31.945      142
   31.960      172
   31.975      166
   31.990      170
   32.005      174
   32.020      175
   32.035      165
   32.050      167
   32.065      183
   32.080      169
   32.095      186
   32.110      194
   32.125      177
   32.140      145
   32.155      162
   32.170      147
   32.185      133
   32.200      139
   32.215      142
   32.230      157
   32.245      159
   32.260      149
   32.275      165
   32.290      166
   32.305      157
   32.320      152
   32.335      151
   32.350      160
   32.365      180
   32.380      177
   32.395      167
   32.410      143
   32.425      160
   32.440      179
   32.455      152
   32.470      179
   32.485      179
   32.500      189
   32.515      182
   32.530      159
   32.545      178
   32.560      229
   32.575      278
   32.590      333
   32.605      336
   32.620      341
   32.635      342
   32.650      388
   32.665      366
   32.680      371
   32.695      312
   32.710      275
   32.725      220
   32.740      212
   32.755      191
   32.770      197
   32.785      168
   32.800      180
   32.815      171
   32.830      198
   32.845      192
   32.860      173
   32.875      187
   32.890      205
   32.905      230
   32.920      202
   32.935      189
   32.950      215
   32.965      199
   32.980      212
   32.995      212
   33.010      225
   33.025      235
   33.040      227
   33.055      248
   33.070      235
   33.085      262
   33.100      272
   33.115      313
   33.130      333
   33.145      323
   33.160      333
   33.175      298
   33.190      302
   33.205      269
   33.220      284
   33.235      277
   33.250      279
   33.265      259
   33.280      251
   33.295      234
   33.310      225
   33.325      207
   33.340      187
   33.355      204
   33.370      209
   33.385      197
   33.400      223
   33.415      262
   33.430      262
   33.445      275
   33.460      342
   33.475      350
   33.490      335
   33.505      300
   33.520      279
   33.535      253
   33.550      219
   33.565      234
   33.580      242
   33.595      238
   33.610      226
   33.625      254
   33.640      245
   33.655      271
   33.670      255
   33.685      254
   33.700      242
   33.715      243
   33.730      227
   33.745      211
   33.760      207
   33.775      203
   33.790      187
   33.805      194
   33.820      182
   33.835      183
   33.850      202
   33.865      182
   33.880      188
   33.895      172
   33.910      148
   33.925      172
   33.940      142
   33.955      169
   33.970      150
   33.985      145
   34.000      137
   34.015      150
   34.030      163
   34.045      178
   34.060      177
   34.075      183
   34.090      237
   34.105      247
   34.120      230
   34.135      228
   34.150      251
   34.165      254
   34.180      239
   34.195      250
   34.210      253
   34.225      231
   34.240      207
   34.255      188
   34.270      186
   34.285      179
   34.300      182
   34.315      166
   34.330      180
   34.345      200
   34.360      189
   34.375      202
   34.390      216
   34.405      200
   34.420      200
   34.435      228
   34.450      185
   34.465      191
   34.480      201
   34.495      194
   34.510      188
   34.525      182
   34.540      183
   34.555      176
   34.570      180
   34.585      215
   34.600      199
   34.615      191
   34.630      200
   34.645      203
   34.660      202
   34.675      217
   34.690      200
   34.705      206
   34.720      243
   34.735      240
   34.750      216
   34.765      220
   34.780      221
   34.795      223
   34.810      226
   34.825      233
   34.840      235
   34.855      252
   34.870      235
   34.885      233
   34.900      254
   34.915      268
   34.930      285
   34.945      289
   34.960      298
   34.975      316
   34.990      318
   35.005      320
   35.020      326
   35.035      356
   35.050      391
   35.065      381
   35.080      396
   35.095      404
   35.110      376
   35.125      358
   35.140      364
   35.155      334
   35.170      360
   35.185      378
   35.200      382
   35.215      408
   35.230      409
   35.245      394
   35.260      402
   35.275      384
   35.290      348
   35.305      320
   35.320      311
   35.335      308
   35.350      271
   35.365      233
   35.380      210
   35.395      211
   35.410      195
   35.425      161
   35.440      174
   35.455      160
   35.470      162
   35.485      170
   35.500      157
   35.515      166
   35.530      160
   35.545      158
   35.560      171
   35.575      170
   35.590      173
   35.605      173
   35.620      163
   35.635      167
   35.650      162
   35.665      171
   35.680      154
   35.695      143
   35.710      173
   35.725      172
   35.740      192
   35.755      185
   35.770      168
   35.785      180
   35.800      185
   35.815      167
   35.830      177
   35.845      194
   35.860      193
   35.875      206
   35.890      244
   35.905      274
   35.920      239
   35.935      222
   35.950      231
   35.965      209
   35.980      179
   35.995      164
   36.010      155
   36.025      174
   36.040      162
   36.055      145
   36.070      160
   36.085      168
   36.100      141
   36.115      151
   36.130      173
   36.145      160
   36.160      150
   36.175      172
   36.190      164
   36.205      158
   36.220      165
   36.235      148
   36.250      157
   36.265      152
   36.280      148
   36.295      162
   36.310      180
   36.325      182
   36.340      182
   36.355      204
   36.370      223
   36.385      219
   36.400      199
   36.415      171
   36.430      179
   36.445      172
   36.460      150
   36.475      148
   36.490      129
   36.505      156
   36.520      157
   36.535      185
   36.550      188
   36.565      173
   36.580      171
   36.595      159
   36.610      170
   36.625      164
   36.640      166
   36.655      164
   36.670      167
   36.685      178
   36.700      207
   36.715      189
   36.730      198
   36.745      186
   36.760      183
   36.775      189
   36.790      187
   36.805      169
   36.820      172
   36.835      174
   36.850      169
   36.865      213
   36.880      195
   36.895      185
   36.910      193
   36.925      180
   36.940      212
   36.955      206
   36.970      174
   36.985      169
   37.000      144
   37.015      154
   37.030      146
   37.045      145
   37.060      163
   37.075      139
   37.090      138
   37.105      135
   37.120      141
   37.135      131
   37.150      135
   37.165      149
   37.180      145
   37.195      136
   37.210      129
   37.225      135
   37.240      140
   37.255      126
   37.270      153
   37.285      159
   37.300      154
   37.315      151
   37.330      167
   37.345      159
   37.360      153
   37.375      156
   37.390      157
   37.405      169
   37.420      164
   37.435      178
   37.450      195
   37.465      185
   37.480      173
   37.495      183
   37.510      179
   37.525      185
   37.540      193
   37.555      174
   37.570      180
   37.585      185
   37.600      206
   37.615      220
   37.630      229
   37.645      205
   37.660      172
   37.675      156
   37.690      129
   37.705      129
   37.720      129
   37.735      139
   37.750      154
   37.765      143
   37.780      152
   37.795      161
   37.810      167
   37.825      158
   37.840      150
   37.855      141
   37.870      153
   37.885      141
   37.900      147
   37.915      139
   37.930      142
   37.945      170
   37.960      197
   37.975      205
   37.990      232
   38.005      222
   38.020      242
   38.035      234
   38.050      213
   38.065      202
   38.080      201
   38.095      196
   38.110      177
   38.125      155
   38.140      158
   38.155      161
   38.170      137
   38.185      161
   38.200      186
   38.215      205
   38.230      207
   38.245      199
   38.260      178
   38.275      187
   38.290      178
   38.305      170
   38.320      177
   38.335      172
   38.350      161
   38.365      155
   38.380      165
   38.395      158
   38.410      160
   38.425      167
   38.440      182
   38.455      196
   38.470      206
   38.485      177
   38.500      180
   38.515      191
   38.530      188
   38.545      164
   38.560      191
   38.575      189
   38.590      189
   38.605      180
   38.620      179
   38.635      185
   38.650      159
   38.665      176
   38.680      173
   38.695      170
   38.710      161
   38.725      175
   38.740      154
   38.755      158
   38.770      172
   38.785      147
   38.800      148
   38.815      156
   38.830      139
   38.845      147
   38.860      134
   38.875      141
   38.890      138
   38.905      164
   38.920      133
   38.935      152
   38.950      141
   38.965      120
   38.980      120
   38.995      129
   39.010      129
   39.025      144
   39.040      128
   39.055      133
   39.070      130
   39.085      137
   39.100      141
   39.115      129
   39.130      141
   39.145      127
   39.160      130
   39.175      132
   39.190      153
   39.205      140
   39.220      118
   39.235      115
   39.250      145
   39.265      158
   39.280      171
   39.295      155
   39.310      153
   39.325      150
   39.340      164
   39.355      167
   39.370      188
   39.385      181
   39.400      187
   39.415      194
   39.430      198
   39.445      189
   39.460      186
   39.475      172
   39.490      177
   39.505      161
   39.520      157
   39.535      145
   39.550      141
   39.565      163
   39.580      153
   39.595      141
   39.610      140
   39.625      110
   39.640      129
   39.655      129
   39.670      143
   39.685      150
   39.700      151
   39.715      158
   39.730      155
   39.745      164
   39.760      139
   39.775      138
   39.790      133
   39.805      137
   39.820      131
   39.835      134
   39.850      135
   39.865      143
   39.880      170
   39.895      151
   39.910      159
   39.925      162
   39.940      185
   39.955      191
   39.970      209
   39.985      162
   40.000      147
   40.015      155
   40.030      196
   40.045      197
   40.060      217
   40.075      236
   40.090      248
   40.105      234
   40.120      230
   40.135      193
   40.150      183
   40.165      182
   40.180      173
   40.195      171
   40.210      172
   40.225      149
   40.240      175
   40.255      175
   40.270      188
   40.285      184
   40.300      211
   40.315      201
   40.330      177
   40.345      193
   40.360      209
   40.375      212
   40.390      214
   40.405      226
   40.420      243
   40.435      215
   40.450      192
   40.465      191
   40.480      179
   40.495      163
   40.510      165
   40.525      158
   40.540      160
   40.555      146
   40.570      139
   40.585      125
   40.600      126
   40.615      141
   40.630      155
   40.645      143
   40.660      153
   40.675      149
   40.690      141
   40.705      151
   40.720      154
   40.735      140
   40.750      126
   40.765      133
   40.780      131
   40.795      127
   40.810      131
   40.825      129
   40.840      140
   40.855      131
   40.870      120
   40.885      120
   40.900      128
   40.915      128
   40.930      119
   40.945      107
   40.960      115
   40.975      129
   40.990      127
   41.005      127
   41.020      134
   41.035      131
   41.050      140
   41.065      142
   41.080      124
   41.095      137
   41.110      138
   41.125      144
   41.140      130
   41.155      130
   41.170      140
   41.185      146
   41.200      146
   41.215      147
   41.230      147
   41.245      147
   41.260      159
   41.275      152
   41.290      150
   41.305      141
   41.320      151
   41.335      141
   41.350      167
   41.365      160
   41.380      137
   41.395      148
   41.410      162
   41.425      149
   41.440      153
   41.455      148
   41.470      154
   41.485      150
   41.500      141
   41.515      148
   41.530      152
   41.545      161
   41.560      140
   41.575      170
   41.590      186
   41.605      173
   41.620      148
   41.635      156
   41.650      176
   41.665      178
   41.680      157
   41.695      160
   41.710      158
   41.725      169
   41.740      155
   41.755      175
   41.770      163
   41.785      165
   41.800      153
   41.815      150
   41.830      158
   41.845      152
   41.860      157
   41.875      181
   41.890      158
   41.905      160
   41.920      151
   41.935      152
   41.950      155
   41.965      137
   41.980      147
   41.995      134
   42.010      146
   42.025      167
   42.040      152
   42.055      154
   42.070      155
   42.085      139
   42.100      154
   42.115      161
   42.130      144
   42.145      142
   42.160      117
   42.175      138
   42.190      139
   42.205      148
   42.220      169
   42.235      147
   42.250      127
   42.265      127
   42.280      127
   42.295      146
   42.310      144
   42.325      141
   42.340      146
   42.355      148
   42.370      126
   42.385      138
   42.400      158
   42.415      126
   42.430      125
   42.445      122
   42.460      119
   42.475      134
   42.490      128
   42.505      126
   42.520      134
   42.535      146
   42.550      166
   42.565      150
   42.580      151
   42.595      149
   42.610      150
   42.625      155
   42.640      144
   42.655      169
   42.670      199
   42.685      164
   42.700      165
   42.715      166
   42.730      162
   42.745      150
   42.760      151
   42.775      144
   42.790      139
   42.805      140
   42.820      146
   42.835      136
   42.850      131
   42.865      132
   42.880      146
   42.895      132
   42.910      125
   42.925      148
   42.940      120
   42.955      144
   42.970      137
   42.985      128
   43.000      136
   43.015      140
   43.030      144
   43.045      132
   43.060      138
   43.075      139
   43.090      136
   43.105      138
   43.120      135
   43.135      141
   43.150      149
   43.165      132
   43.180      133
   43.195      136
   43.210      141
   43.225      136
   43.240      141
   43.255      143
   43.270      146
   43.285      133
   43.300      122
   43.315      129
   43.330      131
   43.345      111
   43.360      120
   43.375      142
   43.390      134
   43.405      121
   43.420      148
   43.435      136
   43.450      136
   43.465      137
   43.480      156
   43.495      132
   43.510      147
   43.525      143
   43.540      129
   43.555      146
   43.570      145
   43.585      137
   43.600      159
   43.615      136
   43.630      121
   43.645      132
   43.660      142
   43.675      162
   43.690      159
   43.705      140
   43.720      137
   43.735      139
   43.750      148
   43.765      140
   43.780      147
   43.795      151
   43.810      158
   43.825      142
   43.840      140
   43.855      153
   43.870      150
   43.885      137
   43.900      125
   43.915      130
   43.930      137
   43.945      149
   43.960      154
   43.975      160
   43.990      154
   44.005      141
   44.020      159
   44.035      159
   44.050      153
   44.065      160
   44.080      160
   44.095      160
   44.110      147
   44.125      153
   44.140      157
   44.155      140
   44.170      154
   44.185      147
   44.200      177
   44.215      170
   44.230      167
   44.245      167
   44.260      199
   44.275      195
   44.290      193
   44.305      188
   44.320      182
   44.335      155
   44.350      157
   44.365      146
   44.380      128
   44.395      148
   44.410      147
   44.425      155
   44.440      160
   44.455      149
   44.470      170
   44.485      153
   44.500      170
   44.515      164
   44.530      171
   44.545      176
   44.560      202
   44.575      205
   44.590      190
   44.605      194
   44.620      195
   44.635      215
   44.650      204
   44.665      204
   44.680      214
   44.695      175
   44.710      180
   44.725      188
   44.740      157
   44.755      164
   44.770      161
   44.785      174
   44.800      171
   44.815      173
   44.830      178
   44.845      165
   44.860      161
   44.875      149
   44.890      152
   44.905      141
   44.920      136
   44.935      146
   44.950      138
   44.965      141
   44.980      157
   44.995      149
   45.010      156
   45.025      182
   45.040      175
   45.055      159
   45.070      150
   45.085      163
   45.100      188
   45.115      162
   45.130      152
   45.145      154
   45.160      148
   45.175      136
   45.190      141
   45.205      129
   45.220      134
   45.235      131
   45.250      131
   45.265      118
   45.280      110
   45.295      127
   45.310      127
   45.325      129
   45.340      131
   45.355      118
   45.370      120
   45.385      116
   45.400      118
   45.415      133
   45.430      129
   45.445      120
   45.460      131
   45.475      136
   45.490      139
   45.505      139
   45.520      139
   45.535      123
   45.550      137
   45.565      147
   45.580      139
   45.595      149
   45.610      147
   45.625      161
   45.640      155
   45.655      166
   45.670      169
   45.685      170
   45.700      159
   45.715      165
   45.730      189
   45.745      155
   45.760      156
   45.775      155
   45.790      155
   45.805      133
   45.820      119
   45.835      134
   45.850      134
   45.865      135
   45.880      143
   45.895      134
   45.910      142
   45.925      123
   45.940      140
   45.955      155
   45.970      156
   45.985      143
