    4.000       54
    4.015       63
    4.030       62
    4.045       56
    4.060       50
    4.075       67
    4.090       57
    4.105       56
    4.120       45
    4.135       41
    4.150       47
    4.165       53
    4.180       55
    4.195       48
    4.210       38
    4.225       45
    4.240       51
    4.255       52
    4.270       59
    4.285       51
    4.300       51
    4.315       55
    4.330       39
    4.345       44
    4.360       53
    4.375       50
    4.390       56
    4.405       51
    4.420       55
    4.435       50
    4.450       41
    4.465       55
    4.480       51
    4.495       49
    4.510       53
    4.525       58
    4.540       53
    4.555       67
    4.570       44
    4.585       51
    4.600       55
    4.615       48
    4.630       48
    4.645       58
    4.660       49
    4.675       55
    4.690       55
    4.705       47
    4.720       53
    4.735       62
    4.750       49
    4.765       47
    4.780       44
    4.795       52
    4.810       49
    4.825       50
    4.840       45
    4.855       43
    4.870       51
    4.885       52
    4.900       49
    4.915       53
    4.930       62
    4.945       52
    4.960       54
    4.975       44
    4.990       44
    5.005       51
    5.020       54
    5.035       42
    5.050       46
    5.065       53
    5.080       53
    5.095       48
    5.110       45
    5.125       38
    5.140       51
    5.155       41
    5.170       49
    5.185       57
    5.200       61
    5.215       56
    5.230       47
    5.245       48
    5.260       44
    5.275       42
    5.290       43
    5.305       45
    5.320       41
    5.335       47
    5.350       42
    5.365       51
    5.380       63
    5.395       54
    5.410       51
    5.425       40
    5.440       41
    5.455       40
    5.470       64
    5.485       57
    5.500       40
    5.515       44
    5.530       37
    5.545       51
    5.560       47
    5.575       44
    5.590       50
    5.605       49
    5.620       53
    5.635       58
    5.650       52
    5.665       56
    5.680       50
    5.695       49
    5.710       55
    5.725       46
    5.740       43
    5.755       51
    5.770       38
    5.785       47
    5.800       47
    5.815       43
    5.830       50
    5.845       58
    5.860       47
    5.875       44
    5.890       47
    5.905       53
    5.920       45
    5.935       53
    5.950       42
    5.965       58
    5.980       61
    5.995       51
    6.010       45
    6.025       48
    6.040       55
    6.055       63
    6.070       47
    6.085       56
    6.100       43
    6.115       47
    6.130       49
    6.145       49
    6.160       41
    6.175       41
    6.190       45
    6.205       59
    6.220       57
    6.235       44
    6.250       63
    6.265       59
    6.280       71
    6.295       69
    6.310       66
    6.325       60
    6.340       62
    6.355       63
    6.370       67
    6.385       81
    6.400       75
    6.415       72
    6.430       80
    6.445       90
    6.460       92
    6.475       88
    6.490       90
    6.505       98
    6.520      120
    6.535      121
    6.550      134
    6.565      138
    6.580      164
    6.595      215
    6.610      228
    6.625      207
    6.640      206
    6.655      237
    6.670      253
    6.685      195
    6.700      133
    6.715       73
    6.730       62
    6.745       48
    6.760       47
    6.775       62
    6.790       43
    6.805       49
    6.820       50
    6.835       46
    6.850       55
    6.865       47
    6.880       53
    6.895       45
    6.910       40
    6.925       40
    6.940       54
    6.955       52
    6.970       58
    6.985       75
    7.000       69
    7.015       57
    7.030       57
    7.045       56
    7.060       73
    7.075       61
    7.090       64
    7.105       62
    7.120       76
    7.135       76
    7.150       83
    7.165       96
    7.180      111
    7.195      109
    7.210      129
    7.225       84
    7.240       49
    7.255       46
    7.270       46
    7.285       41
    7.300       40
    7.315       44
    7.330       46
    7.345       50
    7.360       41
    7.375       49
    7.390       49
    7.405       48
    7.420       48
    7.435       43
    7.450       45
    7.465       57
    7.480       56
    7.495       52
    7.510       56
    7.525       57
    7.540       56
    7.555       54
    7.570       50
    7.585       46
    7.600       43
    7.615       50
    7.630       42
    7.645       50
    7.660       58
    7.675       50
    7.690       48
    7.705       50
    7.720       52
    7.735       49
    7.750       47
    7.765       53
    7.780       50
    7.795       45
    7.810       53
    7.825       38
    7.840       42
    7.855       37
    7.870       41
    7.885       45
    7.900       50
    7.915       53
    7.930       54
    7.945       44
    7.960       51
    7.975       49
    7.990       42
    8.005       51
    8.020       47
    8.035       36
    8.050       45
    8.065       45
    8.080       48
    8.095       48
    8.110       38
    8.125       41
    8.140       43
    8.155       45
    8.170       50
    8.185       48
    8.200       46
    8.215       50
    8.230       47
    8.245       44
    8.260       46
    8.275       45
    8.290       40
    8.305       46
    8.320       42
    8.335       40
    8.350       42
    8.365       55
    8.380       52
    8.395       45
    8.410       45
    8.425       46
    8.440       51
    8.455       46
    8.470       45
    8.485       47
    8.500       55
    8.515       62
    8.530       48
    8.545       50
    8.560       65
    8.575       63
    8.590       73
    8.605       46
    8.620       45
    8.635       51
    8.650       49
    8.665       44
    8.680       46
    8.695       49
    8.710       45
    8.725       40
    8.740       47
    8.755       48
    8.770       42
    8.785       50
    8.800       53
    8.815       51
    8.830       52
    8.845       44
    8.860       44
    8.875       46
    8.890       44
    8.905       43
    8.920       37
    8.935       38
    8.950       43
    8.965       37
    8.980       41
    8.995       41
    9.010       48
    9.025       46
    9.040       52
    9.055       43
    9.070       45
    9.085       46
    9.100       41
    9.115       47
    9.130       49
    9.145       49
    9.160       44
    9.175       51
    9.190       46
    9.205       46
    9.220       56
    9.235       36
    9.250       41
    9.265       53
    9.280       46
    9.295       48
    9.310       41
    9.325       45
    9.340       50
    9.355       52
    9.370       48
    9.385       51
    9.400       46
    9.415       43
    9.430       50
    9.445       47
    9.460       45
    9.475       53
    9.490       42
    9.505       41
    9.520       47
    9.535       45
    9.550       41
    9.565       40
    9.580       42
    9.595       43
    9.610       48
    9.625       52
    9.640       41
    9.655       38
    9.670       43
    9.685       50
    9.700       47
    9.715       44
    9.730       47
    9.745       55
    9.760       55
    9.775       58
    9.790       59
    9.805       68
    9.820       68
    9.835       61
    9.850       58
    9.865       59
    9.880       43
    9.895       44
    9.910       44
    9.925       53
    9.940       50
    9.955       43
    9.970       46
    9.985       44
   10.000       50
   10.015       49
   10.030       45
   10.045       59
   10.060       56
   10.075       40
   10.090       49
   10.105       45
   10.120       45
   10.135       43
   10.150       54
   10.165       52
   10.180       48
   10.195       45
   10.210       56
   10.225       54
   10.240       51
   10.255       53
   10.270       56
   10.285       63
   10.300       54
   10.315       63
   10.330       51
   10.345       64
   10.360       87
   10.375       81
   10.390       90
   10.405      121
   10.420      112
   10.435      102
   10.450      110
   10.465      113
   10.480      120
   10.495      111
   10.510       67
   10.525       60
   10.540       56
   10.555       60
   10.570       58
   10.585       50
   10.600       52
   10.615       53
   10.630       62
   10.645       55
   10.660       49
   10.675       54
   10.690       51
   10.705       55
   10.720       72
   10.735       76
   10.750       70
   10.765       69
   10.780       79
   10.795       87
   10.810       79
   10.825       87
   10.840       99
   10.855      129
   10.870      136
   10.885      122
   10.900       88
   10.915       71
   10.930       49
   10.945       53
   10.960       50
   10.975       50
   10.990       47
   11.005       57
   11.020       57
   11.035       67
   11.050       68
   11.065       74
   11.080       78
   11.095       74
   11.110       64
   11.125       65
   11.140       60
   11.155       61
   11.170       66
   11.185       72
   11.200       74
   11.215      101
   11.230      108
   11.245      118
   11.260       93
   11.275       93
   11.290       67
   11.305       58
   11.320       59
   11.335       56
   11.350       45
   11.365       53
   11.380       58
   11.395       60
   11.410       73
   11.425       83
   11.440       71
   11.455       69
   11.470       68
   11.485       52
   11.500       56
   11.515       39
   11.530       39
   11.545       41
   11.560       40
   11.575       50
   11.590       41
   11.605       37
   11.620       48
   11.635       47
   11.650       46
   11.665       50
   11.680       56
   11.695       56
   11.710       51
   11.725       63
   11.740       60
   11.755       60
   11.770       61
   11.785       64
   11.800       80
   11.815       68
   11.830       86
   11.845       72
   11.860       72
   11.875       58
   11.890       70
   11.905       62
   11.920       62
   11.935       56
   11.950       48
   11.965       44
   11.980       59
   11.995       50
   12.010       41
   12.025       53
   12.040       61
   12.055       60
   12.070       71
   12.085       67
   12.100       61
   12.115       47
   12.130       52
   12.145       37
   12.160       42
   12.175       40
   12.190       33
   12.205       36
   12.220       40
   12.235       46
   12.250       36
   12.265       36
   12.280       42
   12.295       41
   12.310       41
   12.325       40
   12.340       45
   12.355       56
   12.370       51
   12.385       44
   12.400       51
   12.415       54
   12.430       44
   12.445       50
   12.460       52
   12.475       45
   12.490       57
   12.505       71
   12.520      101
   12.535      103
   12.550       98
   12.565      131
   12.580      141
   12.595      157
   12.610      208
   12.625      236
   12.640      306
   12.655      387
   12.670      466
   12.685      518
   12.700      410
   12.715      330
   12.730      272
   12.745      275
   12.760      283
   12.775      326
   12.790      283
   12.805      212
   12.820      154
   12.835       96
   12.850       78
   12.865       69
   12.880       65
   12.895       62
   12.910       58
   12.925       70
   12.940       66
   12.955       73
   12.970       86
   12.985      101
   13.000      105
   13.015      118
   13.030      149
   13.045      186
   13.060      247
   13.075      290
   13.090      268
   13.105      229
   13.120      192
   13.135      148
   13.150      151
   13.165      189
   13.180      208
   13.195      254
   13.210      355
   13.225      425
   13.240      565
   13.255      617
   13.270      593
   13.285      521
   13.300      502
   13.315      495
   13.330      577
   13.345      792
   13.360     1017
   13.375     1286
   13.390     1113
   13.405      790
   13.420      453
   13.435      242
   13.450      130
   13.465      114
   13.480      111
   13.495      124
   13.510      142
   13.525      152
   13.540      145
   13.555      177
   13.570      229
   13.585      284
   13.600      283
   13.615      282
   13.630      275
   13.645      304
   13.660      267
   13.675      212
   13.690      133
   13.705       81
   13.720       70
   13.735       62
   13.750       65
   13.765       77
   13.780       66
   13.795       66
   13.810       67
   13.825       75
   13.840       84
   13.855       91
   13.870      109
   13.885      127
   13.900       96
   13.915       80
   13.930       76
   13.945       60
   13.960       56
   13.975       46
   13.990       40
   14.005       48
   14.020       44
   14.035       50
   14.050       48
   14.065       44
   14.080       50
   14.095       50
   14.110       49
   14.125       45
   14.140       45
   14.155       48
   14.170       52
   14.185       54
   14.200       60
   14.215       71
   14.230       65
   14.245       74
   14.260       79
   14.275       85
   14.290       95
   14.305      101
   14.320      129
   14.335      144
   14.350      142
   14.365      141
   14.380      141
   14.395      138
   14.410      143
   14.425      171
   14.440      176
   14.455      180
   14.470      177
   14.485      186
   14.500      204
   14.515      264
   14.530      349
   14.545      349
   14.560      264
   14.575      175
   14.590      113
   14.605       73
   14.620       57
   14.635       49
   14.650       56
   14.665       53
   14.680       40
   14.695       46
   14.710       49
   14.725       46
   14.740       46
   14.755       40
   14.770       48
   14.785       58
   14.800       49
   14.815       50
   14.830       56
   14.845       47
   14.860       50
   14.875       59
   14.890       46
   14.905       62
   14.920       69
   14.935       62
   14.950       68
   14.965       91
   14.980      114
   14.995      139
   15.010      181
   15.025      223
   15.040      247
   15.055      312
   15.070      343
   15.085      383
   15.100      429
   15.115      570
   15.130      723
   15.145      804
   15.160      725
   15.175      477
   15.190      305
   15.205      172
   15.220      131
   15.235      107
   15.250       98
   15.265      100
   15.280      100
   15.295      120
   15.310      145
   15.325      170
   15.340      208
   15.355      229
   15.370      210
   15.385      191
   15.400      157
   15.415      136
   15.430      150
   15.445      173
   15.460      159
   15.475      138
   15.490       97
   15.505      101
   15.520      117
   15.535      107
   15.550      110
   15.565      133
   15.580      171
   15.595      207
   15.610      236
   15.625      329
   15.640      406
   15.655      349
   15.670      259
   15.685      176
   15.700      148
   15.715      120
   15.730      124
   15.745      125
   15.760      142
   15.775      157
   15.790      202
   15.805      217
   15.820      269
   15.835      280
   15.850      267
   15.865      195
   15.880      125
   15.895       84
   15.910       74
   15.925       58
   15.940       56
   15.955       55
   15.970       55
   15.985       49
   16.000       55
   16.015       63
   16.030       68
   16.045       77
   16.060       94
   16.075      141
   16.090      151
   16.105      158
   16.120      210
   16.135      245
   16.150      333
   16.165      389
   16.180      370
   16.195      325
   16.210      235
   16.225      138
   16.240       80
   16.255       97
   16.270       80
   16.285       80
   16.300       90
   16.315      110
   16.330      128
   16.345      167
   16.360      180
   16.375      197
   16.390      216
   16.405      212
   16.420      225
   16.435      263
   16.450      351
   16.465      437
   16.480      459
   16.495      425
   16.510      326
   16.525      217
   16.540      195
   16.555      201
   16.570      235
   16.585      284
   16.600      353
   16.615      393
   16.630      411
   16.645      326
   16.660      233
   16.675      208
   16.690      201
   16.705      230
   16.720      271
   16.735      317
   16.750      382
   16.765      383
   16.780      342
   16.795      288
   16.810      289
   16.825      308
   16.840      315
   16.855      344
   16.870      319
   16.885      262
   16.900      210
   16.915      151
   16.930       81
   16.945       79
   16.960       82
   16.975       82
   16.990       88
   17.005       97
   17.020      129
   17.035      153
   17.050      173
   17.065      204
   17.080      219
   17.095      196
   17.110      163
   17.125      135
   17.140      108
   17.155       99
   17.170      107
   17.185      126
   17.200      164
   17.215      181
   17.230      208
   17.245      263
   17.260      319
   17.275      353
   17.290      330
   17.305      283
   17.320      205
   17.335      138
   17.350      128
   17.365      133
   17.380      127
   17.395      133
   17.410      106
   17.425      119
   17.440      108
   17.455      122
   17.470      172
   17.485      194
   17.500      226
   17.515      273
   17.530      264
   17.545      218
   17.560      147
   17.575       92
   17.590       72
   17.605       77
   17.620       68
   17.635       72
   17.650       66
   17.665       72
   17.680       81
   17.695       95
   17.710      110
   17.725      104
   17.740      104
   17.755      111
   17.770       96
   17.785      107
   17.800      127
   17.815      100
   17.830       93
   17.845       79
   17.860       78
   17.875       75
   17.890       86
   17.905       74
   17.920       64
   17.935       66
   17.950       56
   17.965       50
   17.980       53
   17.995       45
   18.010       60
   18.025       55
   18.040       45
   18.055       56
   18.070       66
   18.085       75
   18.100       64
   18.115       49
   18.130       65
   18.145       60
   18.160       67
   18.175       52
   18.190       46
   18.205       51
   18.220       49
   18.235       52
   18.250       70
   18.265       90
   18.280      104
   18.295      124
   18.310      139
   18.325      165
   18.340      161
   18.355      148
   18.370      154
   18.385      131
   18.400      103
   18.415       75
   18.430       65
   18.445       60
   18.460       48
   18.475       56
   18.490       48
   18.505       44
   18.520       65
   18.535       72
   18.550       77
   18.565       89
   18.580      110
   18.595      129
   18.610      174
   18.625      160
   18.640      185
   18.655      156
   18.670      140
   18.685      161
   18.700      177
   18.715      181
   18.730      226
   18.745      231
   18.760      194
   18.775      147
   18.790      109
   18.805       87
   18.820       78
   18.835       69
   18.850       66
   18.865       73
   18.880       75
   18.895      105
   18.910       95
   18.925      116
   18.940      130
   18.955      137
   18.970      160
   18.985      142
   19.000      134
   19.015      136
   19.030      112
   19.045      100
   19.060       98
   19.075       86
   19.090       56
   19.105       43
   19.120       41
   19.135       45
   19.150       51
   19.165       39
   19.180       46
   19.195       49
   19.210       58
   19.225       47
   19.240       55
   19.255       54
   19.270       46
   19.285       50
   19.300       49
   19.315       39
   19.330       45
   19.345       45
   19.360       49
   19.375       40
   19.390       38
   19.405       40
   19.420       46
   19.435       44
   19.450       39
   19.465       45
   19.480       53
   19.495       46
   19.510       50
   19.525       53
   19.540       47
   19.555       51
   19.570       63
   19.585       72
   19.600       95
   19.615      108
   19.630      117
   19.645      142
   19.660      176
   19.675      162
   19.690      167
   19.705      151
   19.720      147
   19.735      122
   19.750       93
   19.765       90
   19.780       57
   19.795       71
   19.810       82
   19.825      110
   19.840      120
   19.855      148
   19.870      181
   19.885      211
   19.900      278
   19.915      379
   19.930      447
   19.945      463
   19.960      390
   19.975      328
   19.990      232
   20.005      195
   20.020      161
   20.035      159
   20.050      196
   20.065      222
   20.080      246
   20.095      270
   20.110      251
   20.125      174
   20.140      152
   20.155      132
   20.170       98
   20.185       78
   20.200       67
   20.215       68
   20.230       70
   20.245       83
   20.260       82
   20.275       85
   20.290       96
   20.305      105
   20.320       91
   20.335       84
   20.350       71
   20.365       58
   20.380       54
   20.395       51
   20.410       54
   20.425       54
   20.440       50
   20.455       60
   20.470       55
   20.485       59
   20.500       48
   20.515       45
   20.530       58
   20.545       57
   20.560       58
   20.575       63
   20.590       69
   20.605       81
   20.620       78
   20.635       80
   20.650       73
   20.665       75
   20.680       70
   20.695       68
   20.710       65
   20.725       58
   20.740       48
   20.755       80
   20.770       75
   20.785       94
   20.800      123
   20.815      150
   20.830      184
   20.845      183
   20.860      183
   20.875      171
   20.890      168
   20.905      184
   20.920      187
   20.935      218
   20.950      186
   20.965      140
   20.980       95
   20.995       78
   21.010       52
   21.025       61
   21.040       60
   21.055       65
   21.070       65
   21.085       68
   21.100       46
   21.115       53
   21.130       51
   21.145       59
   21.160       66
   21.175       65
   21.190       57
   21.205       66
   21.220       66
   21.235       70
   21.250       78
   21.265       87
   21.280      104
   21.295      106
   21.310       87
   21.325       83
   21.340       79
   21.355       66
   21.370       56
   21.385       45
   21.400       38
   21.415       45
   21.430       44
   21.445       49
   21.460       57
   21.475       54
   21.490       51
   21.505       50
   21.520       69
   21.535       55
   21.550       67
   21.565       86
   21.580       96
   21.595      119
   21.610      149
   21.625      194
   21.640      211
   21.655      199
   21.670      199
   21.685      153
   21.700      158
   21.715      141
   21.730      146
   21.745      146
   21.760      172
   21.775      200
   21.790      240
   21.805      292
   21.820      422
   21.835      543
   21.850      569
   21.865      538
   21.880      485
   21.895      344
   21.910      212
   21.925      168
   21.940      157
   21.955      144
   21.970      136
   21.985      126
   22.000       87
   22.015       79
   22.030       68
   22.045       62
   22.060       57
   22.075       51
   22.090       58
   22.105       52
   22.120       45
   22.135       50
   22.150       53
   22.165       57
   22.180       58
   22.195       64
   22.210       66
   22.225       62
   22.240       60
   22.255       64
   22.270       67
   22.285       69
   22.300       70
   22.315       70
   22.330       87
   22.345       88
   22.360       81
   22.375       83
   22.390       92
   22.405       87
   22.420      115
   22.435      125
   22.450      125
   22.465      129
   22.480      142
   22.495      114
   22.510      101
   22.525       79
   22.540       73
   22.555       60
   22.570      102
   22.585      104
   22.600      114
   22.615      157
   22.630      171
   22.645      177
   22.660      192
   22.675      201
   22.690      180
   22.705      136
   22.720      114
   22.735       94
   22.750       98
   22.765      110
   22.780      105
   22.795      125
   22.810      119
   22.825      137
   22.840      159
   22.855      207
   22.870      218
   22.885      228
   22.900      224
   22.915      190
   22.930      187
   22.945      169
   22.960      147
   22.975      129
   22.990      112
   23.005       88
   23.020       66
   23.035       61
   23.050       73
   23.065       74
   23.080       89
   23.095      105
   23.110      107
   23.125      113
   23.140      112
   23.155      100
   23.170       80
   23.185       80
   23.200       82
   23.215       86
   23.230       88
   23.245      114
   23.260      129
   23.275      122
   23.290      104
   23.305       72
   23.320       71
   23.335       67
   23.350       62
   23.365       58
   23.380       66
   23.395       63
   23.410       61
   23.425       71
   23.440       70
   23.455       72
   23.470       76
   23.485       67
   23.500       67
   23.515       52
   23.530       43
   23.545       47
   23.560       46
   23.575       33
   23.590       35
   23.605       35
   23.620       46
   23.635       50
   23.650       51
   23.665       61
   23.680       43
   23.695       46
   23.710       52
   23.725       44
   23.740       49
   23.755       39
   23.770       43
   23.785       48
   23.800       43
   23.815       58
   23.830       62
   23.845       68
   23.860       70
   23.875       57
   23.890       86
   23.905       85
   23.920       89
   23.935       84
   23.950       68
   23.965       74
   23.980       59
   23.995       64
   24.010       78
   24.025       92
   24.040      115
   24.055      108
   24.070      118
   24.085      117
   24.100      103
   24.115       70
   24.130       66
   24.145       53
   24.160       34
   24.175       43
   24.190       49
   24.205       51
   24.220       64
   24.235       84
   24.250       76
   24.265       84
   24.280      125
   24.295      136
   24.310      133
   24.325      112
   24.340      106
   24.355       77
   24.370       62
   24.385       57
   24.400       54
   24.415       51
   24.430       50
   24.445       51
   24.460       60
   24.475       63
   24.490       68
   24.505       53
   24.520       86
   24.535       83
   24.550       83
   24.565       68
   24.580       78
   24.595       80
   24.610       79
   24.625       72
   24.640       82
   24.655       73
   24.670       72
   24.685       84
   24.700       74
   24.715       59
   24.730       73
   24.745       64
   24.760       67
   24.775       59
   24.790       71
   24.805       77
   24.820       67
   24.835       71
   24.850       60
   24.865       51
   24.880       49
   24.895       36
   24.910       43
   24.925       54
   24.940       74
   24.955       81
   24.970       90
   24.985      108
   25.000      112
   25.015      126
   25.030      132
   25.045      113
   25.060       92
   25.075       82
   25.090       79
   25.105       82
   25.120       73
   25.135       90
   25.150       83
   25.165       71
   25.180       92
   25.195       99
   25.210      117
   25.225      109
   25.240       88
   25.255       92
   25.270       73
   25.285       68
   25.300       72
   25.315       77
   25.330       62
   25.345       50
   25.360       56
   25.375       59
   25.390       66
   25.405       68
   25.420       83
   25.435       94
   25.450       98
   25.465      114
   25.480      115
   25.495      106
   25.510      104
   25.525       95
   25.540       90
   25.555       72
   25.570       67
   25.585       68
   25.600       83
   25.615       78
   25.630       89
   25.645      112
   25.660      123
   25.675      147
   25.690      220
   25.705      235
   25.720      239
   25.735      263
   25.750      250
   25.765      205
   25.780      149
   25.795      135
   25.810      103
   25.825       89
   25.840       90
   25.855       94
   25.870      103
   25.885      115
   25.900      138
   25.915      152
   25.930      154
   25.945      151
   25.960      137
   25.975      125
   25.990      102
   26.005       96
   26.020       83
   26.035       75
   26.050       66
   26.065       70
   26.080       75
   26.095       80
   26.110       89
   26.125       90
   26.140       98
   26.155      107
   26.170      114
   26.185      126
   26.200      116
   26.215      119
   26.230      103
   26.245       83
   26.260       73
   26.275       81
   26.290       71
   26.305       64
   26.320       68
   26.335       70
   26.350       64
   26.365       67
   26.380       76
   26.395       81
   26.410       86
   26.425       85
   26.440       82
   26.455       66
   26.470       59
   26.485       59
   26.500       52
   26.515       46
   26.530       47
   26.545       45
   26.560       53
   26.575       49
   26.590       47
   26.605       47
   26.620       49
   26.635       60
   26.650       81
   26.665       87
   26.680      100
   26.695      106
   26.710      101
   26.725       78
   26.740       86
   26.755       73
   26.770       54
   26.785       47
   26.800       66
   26.815       52
   26.830       54
   26.845       52
   26.860       68
   26.875       81
   26.890       93
   26.905      108
   26.920      122
   26.935      153
   26.950      186
   26.965      193
   26.980      210
   26.995      193
   27.010      181
   27.025      171
   27.040      188
   27.055      200
   27.070      158
   27.085      120
   27.100       98
   27.115       83
   27.130       75
   27.145       65
   27.160       59
   27.175       62
   27.190       74
   27.205       76
   27.220       69
   27.235       72
   27.250       72
   27.265       83
   27.280       80
   27.295       74
   27.310       82
   27.325       72
   27.340       58
   27.355       75
   27.370       74
   27.385       89
   27.400       92
   27.415       73
   27.430       85
   27.445       87
   27.460       87
   27.475       76
   27.490      101
   27.505      130
   27.520      128
   27.535      125
   27.550      154
   27.565      165
   27.580      161
   27.595      170
   27.610      172
   27.625      176
   27.640      183
   27.655      195
   27.670      212
   27.685      180
   27.700      150
   27.715      135
   27.730      121
   27.745      126
   27.760      146
   27.775      125
   27.790      100
   27.805       91
   27.820      100
   27.835       97
   27.850       83
   27.865      100
   27.880      106
   27.895      126
   27.910      120
   27.925      138
   27.940      132
   27.955      145
   27.970      128
   27.985       96
   28.000       73
   28.015       71
   28.030       63
   28.045       52
   28.060       45
   28.075       51
   28.090       61
   28.105       51
   28.120       51
   28.135       55
   28.150       64
   28.165       74
   28.180       86
   28.195       89
   28.210       75
   28.225       78
   28.240       95
   28.255       81
   28.270       94
   28.285       83
   28.300       83
   28.315      104
   28.330      107
   28.345       87
   28.360       98
   28.375      108
   28.390       97
   28.405       80
   28.420       95
   28.435       89
   28.450       94
   28.465      105
   28.480       99
   28.495       89
   28.510       72
   28.525       68
   28.540       55
   28.555       56
   28.570       51
   28.585       52
   28.600       48
   28.615       47
   28.630       45
   28.645       57
   28.660       65
   28.675       61
   28.690       65
   28.705       71
   28.720       79
   28.735       81
   28.750       93
   28.765       85
   28.780       87
   28.795       95
   28.810       89
   28.825       69
   28.840       67
   28.855       59
   28.870       72
   28.885       71
   28.900       84
   28.915       79
   28.930       89
   28.945       94
   28.960      116
   28.975      114
   28.990      129
   29.005      119
   29.020      108
   29.035      107
   29.050       99
   29.065       96
   29.080       90
   29.095      104
   29.110      124
   29.125      124
   29.140      114
   29.155      122
   29.170      124
   29.185      107
   29.200       84
   29.215       66
   29.230       79
   29.245       81
   29.260       77
   29.275       90
   29.290       89
   29.305       79
   29.320       73
   29.335       69
   29.350       73
   29.365       61
   29.380       63
   29.395       64
   29.410       66
   29.425       58
   29.440       64
   29.455       61
   29.470       56
   29.485       67
   29.500       68
   29.515       81
   29.530       83
   29.545      101
   29.560       89
   29.575       99
   29.590       99
   29.605       87
   29.620       90
   29.635       77
   29.650       91
   29.665       79
   29.680      112
   29.695      125
   29.710      147
   29.725      153
   29.740      152
   29.755      141
   29.770      133
   29.785      125
   29.800       97
   29.815       92
   29.830       85
   29.845       80
   29.860       89
   29.875       76
   29.890       58
   29.905       70
   29.920       82
   29.935       74
   29.950       79
   29.965       73
   29.980       60
   29.995       65
   30.010       55
   30.025       50
   30.040       47
   30.055       57
   30.070       51
   30.085       53
   30.100       54
   30.115       67
   30.130       63
   30.145       52
   30.160       52
   30.175       44
   30.190       43
   30.205       50
   30.220       50
   30.235       47
   30.250       51
   30.265       60
   30.280       45
   30.295       40
   30.310       63
   30.325       60
   30.340       74
   30.355       64
   30.370       64
   30.385       62
   30.400       69
   30.415       64
   30.430       55
   30.445       67
   30.460       60
   30.475       57
   30.490       57
   30.505       58
   30.520       58
   30.535       71
   30.550       67
   30.565       71
   30.580       93
   30.595       84
   30.610       95
   30.625       96
   30.640      109
   30.655      112
   30.670      127
   30.685      127
   30.700       93
   30.715       84
   30.730       81
   30.745       62
   30.760       72
   30.775       55
   30.790       59
   30.805       52
   30.820       60
   30.835       52
   30.850       42
   30.865       48
   30.880       48
   30.895       43
   30.910       56
   30.925       61
   30.940       72
   30.955       91
   30.970       89
   30.985       99
   31.000      111
   31.015      122
   31.030      116
   31.045      100
   31.060       95
   31.075       91
   31.090       89
   31.105       86
   31.120       80
   31.135       90
   31.150       72
   31.165       72
   31.180       84
   31.195       78
   31.210       74
   31.225       75
   31.240       87
   31.255       82
   31.270       75
   31.285       75
   31.300       62
   31.315       67
   31.330       69
   31.345       74
   31.360       66
   31.375       76
   31.390       96
   31.405       83
   31.420      102
   31.435       94
   31.450       94
   31.465       74
   31.480       77
   31.495       85
   31.510       78
   31.525       75
   31.540       83
   31.555       71
   31.570       88
   31.585      104
   31.600       96
   31.615       99
   31.630      124
   31.645      106
   31.660       96
   31.675       93
   31.690       99
   31.705       93
   31.720       98
   31.735       76
   31.750       95
   31.765      104
   31.780       99
   31.795       90
   31.810      107
   31.825      108
   31.840       79
   31.855       84
   31.870       97
   31.885       97
   31.900      106
   31.915      115
   31.930      116
   31.945      129
   31.960      105
   31.975       93
   31.990       88
   32.005       91
   32.020       89
   32.035       86
   32.050       79
   32.065       69
   32.080       76
   32.095       89
   32.110       91
   32.125       91
   32.140       83
   32.155       85
   32.170      108
   32.185      105
   32.200      101
   32.215       97
   32.230       89
   32.245       70
   32.260       69
   32.275       59
   32.290       62
   32.305       67
   32.320       61
   32.335       54
   32.350       61
   32.365       51
   32.380       53
   32.395       73
   32.410       75
   32.425       59
   32.440       66
   32.455       66
   32.470       72
   32.485       64
   32.500       59
   32.515       56
   32.530       54
   32.545       59
   32.560       47
   32.575       45
   32.590       57
   32.605       65
   32.620       62
   32.635       75
   32.650       66
   32.665       63
   32.680       41
   32.695       48
   32.710       52
   32.725       55
   32.740       54
   32.755       57
   32.770       57
   32.785       60
   32.800       59
   32.815       44
   32.830       55
   32.845       52
   32.860       66
   32.875       47
   32.890       70
   32.905       59
   32.920       55
   32.935       77
   32.950       89
   32.965       86
   32.980       79
   32.995       97
   33.010      115
   33.025      109
   33.040      100
   33.055      120
   33.070      102
   33.085       86
   33.100       75
   33.115       71
   33.130       68
   33.145       67
   33.160       61
   33.175       73
   33.190       80
   33.205       73
   33.220       66
   33.235       74
   33.250       76
   33.265       73
   33.280       75
   33.295       71
   33.310       72
   33.325       73
   33.340       70
   33.355       67
   33.370       56
   33.385       68
   33.400       77
   33.415       81
   33.430       82
   33.445       78
   33.460       91
   33.475       81
   33.490       88
   33.505      107
   33.520      105
   33.535      110
   33.550      126
   33.565      125
   33.580      119
   33.595      116
   33.610      107
   33.625      114
   33.640       97
   33.655      102
   33.670       88
   33.685       83
   33.700       81
   33.715       84
   33.730       83
   33.745       82
   33.760       72
   33.775       74
   33.790       71
   33.805       70
   33.820       89
   33.835       97
   33.850      109
   33.865      127
   33.880      132
   33.895      142
   33.910      114
   33.925      102
   33.940      100
   33.955       93
   33.970       68
   33.985       86
   34.000       82
   34.015       99
   34.030       96
   34.045      108
   34.060       93
   34.075       86
   34.090      101
   34.105      105
   34.120      100
   34.135       98
   34.150       80
   34.165       83
   34.180       81
   34.195       89
   34.210       77
   34.225       83
   34.240       75
   34.255       66
   34.270       61
   34.285       62
   34.300       65
   34.315       70
   34.330       56
   34.345       59
   34.360       56
   34.375       48
   34.390       53
   34.405       59
   34.420       66
   34.435       64
   34.450       68
   34.465       72
   34.480       66
   34.495       63
   34.510       79
   34.525       88
   34.540       67
   34.555       81
   34.570       95
   34.585       96
   34.600      103
   34.615       85
   34.630       87
   34.645       79
   34.660       84
   34.675       70
   34.690       58
   34.705       50
   34.720       49
   34.735       52
   34.750       51
   34.765       61
   34.780       68
   34.795       86
   34.810       77
   34.825       77
   34.840       69
   34.855       52
   34.870       61
   34.885       60
   34.900       67
   34.915       72
   34.930       70
   34.945       75
   34.960       72
   34.975       69
   34.990       74
   35.005       66
   35.020       59
   35.035       62
   35.050       73
   35.065       83
   35.080       72
   35.095       78
   35.110       71
   35.125       90
   35.140      107
   35.155       96
   35.170      100
   35.185       84
   35.200       83
   35.215       79
   35.230       64
   35.245       67
   35.260       86
   35.275       74
   35.290       79
   35.305       83
   35.320       80
   35.335       85
   35.350       97
   35.365       98
   35.380       99
   35.395      104
   35.410      109
   35.425      106
   35.440      122
   35.455      130
   35.470      140
   35.485      144
   35.500      127
   35.515      142
   35.530      143
   35.545      130
   35.560      112
   35.575       91
   35.590      119
   35.605      132
   35.620      122
   35.635      135
   35.650      130
   35.665      125
   35.680      118
   35.695      123
   35.710      108
   35.725      112
   35.740      108
   35.755       81
   35.770      101
   35.785       85
   35.800       78
   35.815       90
   35.830       68
   35.845       57
   35.860       58
   35.875       55
   35.890       54
   35.905       58
   35.920       55
   35.935       58
   35.950       62
   35.965       59
   35.980       57
   35.995       53
   36.010       54
   36.025       45
   36.040       43
   36.055       57
   36.070       58
   36.085       52
   36.100       65
   36.115       58
   36.130       54
   36.145       67
   36.160       65
   36.175       67
   36.190       56
   36.205       58
   36.220       69
   36.235       59
   36.250       70
   36.265       66
   36.280       68
   36.295       83
   36.310       86
   36.325       73
   36.340       78
   36.355       73
   36.370       79
   36.385       70
   36.400       72
   36.415       52
   36.430       59
   36.445       60
   36.460       56
   36.475       56
   36.490       49
   36.505       53
   36.520       68
   36.535       62
   36.550       54
   36.565       62
   36.580       64
   36.595       53
   36.610       62
   36.625       61
   36.640       68
   36.655       66
   36.670       56
   36.685       41
   36.700       58
   36.715       48
   36.730       56
   36.745       59
   36.760       74
   36.775       80
   36.790       86
   36.805       89
   36.820       87
   36.835       78
   36.850       78
   36.865       73
   36.880       65
   36.895       68
   36.910       71
   36.925       62
   36.940       70
   36.955       68
   36.970       69
   36.985       74
   37.000       80
   37.015       62
   37.030       73
   37.045       79
   37.060       83
   37.075       61
   37.090       73
   37.105       76
   37.120       75
   37.135      100
   37.150       91
   37.165       87
   37.180       79
   37.195       64
   37.210       63
   37.225       69
   37.240       69
   37.255       74
   37.270       74
   37.285       83
   37.300       76
   37.315       67
   37.330       69
   37.345       66
   37.360       74
   37.375       93
   37.390       74
   37.405       73
   37.420       72
   37.435       57
   37.450       62
   37.465       52
   37.480       58
   37.495       48
   37.510       48
   37.525       39
   37.540       40
   37.555       47
   37.570       55
   37.585       52
   37.600       51
   37.615       49
   37.630       51
   37.645       55
   37.660       69
   37.675       44
   37.690       58
   37.705       55
   37.720       66
   37.735       53
   37.750       66
   37.765       56
   37.780       66
   37.795       61
   37.810       55
   37.825       61
   37.840       51
   37.855       51
   37.870       47
   37.885       50
   37.900       52
   37.915       50
   37.930       61
   37.945       79
   37.960       70
   37.975       67
   37.990       60
   38.005       58
   38.020       63
   38.035       70
   38.050       75
   38.065       79
   38.080       75
   38.095       76
   38.110       70
   38.125       58
   38.140       58
   38.155       60
   38.170       68
   38.185       61
   38.200       56
   38.215       55
   38.230       56
   38.245       54
   38.260       60
   38.275       66
   38.290       71
   38.305       67
   38.320       51
   38.335       50
   38.350       52
   38.365       60
   38.380       65
   38.395       63
   38.410       73
   38.425       74
   38.440       98
   38.455       90
   38.470      102
   38.485      109
   38.500      103
   38.515       89
   38.530       77
   38.545       78
   38.560       71
   38.575       64
   38.590       66
   38.605       64
   38.620       68
   38.635       70
   38.650       73
   38.665       71
   38.680       79
   38.695       73
   38.710       77
   38.725       72
   38.740       84
   38.755       72
   38.770       81
   38.785       73
   38.800       75
   38.815       61
   38.830       68
   38.845       46
   38.860       68
   38.875       63
   38.890       67
   38.905       69
   38.920       79
   38.935       82
   38.950       89
   38.965       87
   38.980       81
   38.995       81
   39.010       71
   39.025       83
   39.040       81
   39.055       76
   39.070       69
   39.085       66
   39.100       57
   39.115       66
   39.130       58
   39.145       55
   39.160       58
   39.175       59
   39.190       60
   39.205       60
   39.220       62
   39.235       68
   39.250       65
   39.265       65
   39.280       64
   39.295       59
   39.310       55
   39.325       49
   39.340       65
   39.355       82
   39.370       79
   39.385       72
   39.400       56
   39.415       49
   39.430       51
   39.445       53
   39.460       38
   39.475       55
   39.490       59
   39.505       56
   39.520       60
   39.535       56
   39.550       55
   39.565       64
   39.580       49
   39.595       48
   39.610       60
   39.625       49
   39.640       51
   39.655       49
   39.670       54
   39.685       61
   39.700       66
   39.715       66
   39.730       64
   39.745       62
   39.760       63
   39.775       74
   39.790       66
   39.805       61
   39.820       59
   39.835       79
   39.850       88
   39.865       66
   39.880       80
   39.895       79
   39.910       76
   39.925       81
   39.940       73
   39.955       70
   39.970       65
   39.985       67
   40.000       75
   40.015       77
   40.030       68
   40.045       64
   40.060       59
   40.075       60
   40.090       58
   40.105       69
   40.120       61
   40.135       59
   40.150       68
   40.165       63
   40.180       56
   40.195       57
   40.210       62
   40.225       53
   40.240       47
   40.255       56
   40.270       56
   40.285       57
   40.300       70
   40.315       64
   40.330       57
   40.345       52
   40.360       53
   40.375       51
   40.390       67
   40.405       58
   40.420       59
   40.435       59
   40.450       71
   40.465       67
   40.480       76
   40.495       70
   40.510       69
   40.525       80
   40.540       72
   40.555       87
   40.570       90
   40.585       83
   40.600       68
   40.615       69
   40.630       66
   40.645       72
   40.660       66
   40.675       69
   40.690       67
   40.705       61
   40.720       70
   40.735       66
   40.750       75
   40.765       63
   40.780       83
   40.795       88
   40.810       85
   40.825       85
   40.840       97
   40.855       77
   40.870       75
   40.885       89
   40.900      102
   40.915       95
   40.930       84
   40.945       87
   40.960       86
   40.975       73
   40.990       81
   41.005       63
   41.020       67
   41.035       62
   41.050       57
   41.065       55
   41.080       63
   41.095       55
   41.110       46
   41.125       50
   41.140       45
   41.155       63
   41.170       64
   41.185       54
   41.200       55
   41.215       54
   41.230       59
   41.245       54
   41.260       58
   41.275       73
   41.290       64
   41.305       54
   41.320       53
   41.335       53
   41.350       55
   41.365       46
   41.380       53
   41.395       44
   41.410       46
   41.425       54
   41.440       46
   41.455       44
   41.470       47
   41.485       60
   41.500       55
   41.515       57
   41.530       62
   41.545       69
   41.560       55
   41.575       59
   41.590       62
   41.605       55
   41.620       59
   41.635       36
   41.650       37
   41.665       42
   41.680       49
   41.695       60
   41.710       77
   41.725       60
   41.740       65
   41.755       56
   41.770       50
   41.785       60
   41.800       63
   41.815       61
   41.830       69
   41.845       63
   41.860       62
   41.875       62
   41.890       66
   41.905       81
   41.920       64
   41.935       57
   41.950       71
   41.965       67
   41.980       61
   41.995       70
   42.010       53
   42.025       59
   42.040       56
   42.055       64
   42.070       53
   42.085       58
   42.100       64
   42.115       62
   42.130       57
   42.145       73
   42.160       58
   42.175       58
   42.190       57
   42.205       61
   42.220       73
   42.235       68
   42.250       69
   42.265       64
   42.280       58
   42.295       56
   42.310       59
   42.325       49
   42.340       55
   42.355       60
   42.370       54
   42.385       62
   42.400       76
   42.415       82
   42.430       81
   42.445       69
   42.460       67
   42.475       67
   42.490       75
   42.505       70
   42.520       53
   42.535       62
   42.550       70
   42.565       74
   42.580       72
   42.595       64
   42.610       75
   42.625       58
   42.640       53
   42.655       53
   42.670       59
   42.685       50
   42.700       58
   42.715       57
   42.730       49
   42.745       44
   42.760       54
   42.775       58
   42.790       61
   42.805       55
   42.820       58
   42.835       55
   42.850       58
   42.865       64
   42.880       58
   42.895       56
   42.910       64
   42.925       62
   42.940       49
   42.955       52
   42.970       47
   42.985       59
   43.000       60
   43.015       50
   43.030       52
   43.045       55
   43.060       49
   43.075       61
   43.090       51
   43.105       49
   43.120       52
   43.135       60
   43.150       55
   43.165       64
   43.180       64
   43.195       68
   43.210       60
   43.225       58
   43.240       67
   43.255       59
   43.270       57
   43.285       59
   43.300       49
   43.315       59
   43.330       53
   43.345       68
   43.360       55
   43.375       49
   43.390       52
   43.405       58
   43.420       57
   43.435       58
   43.450       55
   43.465       46
   43.480       55
   43.495       47
   43.510       66
   43.525       53
   43.540       54
   43.555       56
   43.570       65
   43.585       43
   43.600       48
   43.615       53
   43.630       42
   43.645       59
   43.660       61
   43.675       57
   43.690       58
   43.705       45
   43.720       50
   43.735       52
   43.750       47
   43.765       46
   43.780       60
   43.795       57
   43.810       61
   43.825       54
   43.840       44
   43.855       61
   43.870       66
   43.885       63
   43.900       59
   43.915       53
   43.930       58
   43.945       59
   43.960       54
   43.975       49
   43.990       54
   44.005       50
   44.020       60
   44.035       61
   44.050       60
   44.065       66
   44.080       72
   44.095       52
   44.110       65
   44.125       72
   44.140       76
   44.155       67
   44.170       55
   44.185       52
   44.200       65
   44.215       63
   44.230       63
   44.245       71
   44.260       59
   44.275       69
   44.290       73
   44.305       71
   44.320       65
   44.335       75
   44.350       68
   44.365       61
   44.380       71
   44.395       67
   44.410       51
   44.425       56
   44.440       68
   44.455       56
   44.470       64
   44.485       64
   44.500       54
   44.515       62
   44.530       56
   44.545       60
   44.560       67
   44.575       69
   44.590       72
   44.605       67
   44.620       64
   44.635       66
   44.650       57
   44.665       73
   44.680       59
   44.695       46
   44.710       53
   44.725       63
   44.740       69
   44.755       57
   44.770       76
   44.785       69
   44.800       80
   44.815       79
   44.830       75
   44.845       79
   44.860       73
   44.875       75
   44.890       63
   44.905       59
   44.920       78
   44.935       67
   44.950       54
   44.965       57
   44.980       54
   44.995       62
   45.010       53
   45.025       63
   45.040       73
   45.055       65
   45.070       70
   45.085       76
   45.100       70
   45.115       69
   45.130       80
   45.145       86
   45.160       70
   45.175       62
   45.190       84
   45.205       89
   45.220       86
   45.235       91
   45.250       71
   45.265       62
   45.280       78
   45.295       67
   45.310       75
   45.325       56
   45.340       62
   45.355       67
   45.370       66
   45.385       63
   45.400       69
   45.415       59
   45.430       70
   45.445       55
   45.460       53
   45.475       66
   45.490       65
   45.505       57
   45.520       58
   45.535       56
   45.550       62
   45.565       67
   45.580       74
   45.595       60
   45.610       51
   45.625       76
   45.640       71
   45.655       67
   45.670       57
   45.685       50
   45.700       58
   45.715       62
   45.730       56
   45.745       56
   45.760       50
   45.775       48
   45.790       45
   45.805       54
   45.820       48
   45.835       52
   45.850       44
   45.865       55
   45.880       64
   45.895       53
   45.910       48
   45.925       47
   45.940       49
   45.955       55
   45.970       57
   45.985       55
