    4.000      190
    4.015      202
    4.030      172
    4.045      204
    4.060      192
    4.075      197
    4.090      222
    4.105      217
    4.120      184
    4.135      213
    4.150      221
    4.165      184
    4.180      187
    4.195      199
    4.210      201
    4.225      221
    4.240      222
    4.255      204
    4.270      208
    4.285      202
    4.300      191
    4.315      183
    4.330      187
    4.345      183
    4.360      202
    4.375      183
    4.390      195
    4.405      200
    4.420      207
    4.435      185
    4.450      185
    4.465      181
    4.480      193
    4.495      197
    4.510      216
    4.525      186
    4.540      195
    4.555      204
    4.570      223
    4.585      209
    4.600      190
    4.615      182
    4.630      192
    4.645      183
    4.660      186
    4.675      176
    4.690      179
    4.705      187
    4.720      192
    4.735      194
    4.750      203
    4.765      191
    4.780      187
    4.795      195
    4.810      194
    4.825      197
    4.840      195
    4.855      198
    4.870      174
    4.885      179
    4.900      185
    4.915      195
    4.930      184
    4.945      181
    4.960      176
    4.975      177
    4.990      184
    5.005      188
    5.020      185
    5.035      182
    5.050      186
    5.065      194
    5.080      195
    5.095      195
    5.110      206
    5.125      204
    5.140      184
    5.155      194
    5.170      176
    5.185      184
    5.200      184
    5.215      173
    5.230      193
    5.245      169
    5.260      193
    5.275      194
    5.290      171
    5.305      181
    5.320      189
    5.335      174
    5.350      168
    5.365      186
    5.380      181
    5.395      181
    5.410      190
    5.425      182
    5.440      176
    5.455      180
    5.470      163
    5.485      179
    5.500      190
    5.515      174
    5.530      187
    5.545      179
    5.560      168
    5.575      179
    5.590      165
    5.605      180
    5.620      193
    5.635      172
    5.650      168
    5.665      167
    5.680      175
    5.695      180
    5.710      202
    5.725      190
    5.740      186
    5.755      159
    5.770      166
    5.785      172
    5.800      152
    5.815      161
    5.830      160
    5.845      174
    5.860      176
    5.875      186
    5.890      174
    5.905      206
    5.920      170
    5.935      182
    5.950      220
    5.965      195
    5.980      198
    5.995      211
    6.010      194
    6.025      195
    6.040      202
    6.055      176
    6.070      174
    6.085      175
    6.100      182
    6.115      197
    6.130      179
    6.145      191
    6.160      175
    6.175      171
    6.190      168
    6.205      170
    6.220      179
    6.235      197
    6.250      205
    6.265      221
    6.280      226
    6.295      216
    6.310      232
    6.325      219
    6.340      241
    6.355      264
    6.370      254
    6.385      259
    6.400      258
    6.415      266
    6.430      287
    6.445      300
    6.460      298
    6.475      285
    6.490      317
    6.505      352
    6.520      422
    6.535      402
    6.550      411
    6.565      407
    6.580      418
    6.595      443
    6.610      359
    6.625      247
    6.640      183
    6.655      181
    6.670      186
    6.685      171
    6.700      186
    6.715      177
    6.730      174
    6.745      195
    6.760      189
    6.775      188
    6.790      194
    6.805      179
    6.820      167
    6.835      197
    6.850      186
    6.865      214
    6.880      214
    6.895      168
    6.910      186
    6.925      191
    6.940      187
    6.955      222
    6.970      198
    6.985      210
    7.000      230
    7.015      203
    7.030      206
    7.045      215
    7.060      253
    7.075      260
    7.090      303
    7.105      315
    7.120      307
    7.135      243
    7.150      208
    7.165      174
    7.180      158
    7.195      171
    7.210      166
    7.225      176
    7.240      177
    7.255      151
    7.270      153
    7.285      196
    7.300      185
    7.315      153
    7.330      193
    7.345      193
    7.360      178
    7.375      174
    7.390      188
    7.405      161
    7.420      202
    7.435      201
    7.450      188
    7.465      187
    7.480      184
    7.495      201
    7.510      188
    7.525      199
    7.540      226
    7.555      229
    7.570      226
    7.585      206
    7.600      219
    7.615      208
    7.630      189
    7.645      177
    7.660      168
    7.675      185
    7.690      192
    7.705      167
    7.720      167
    7.735      162
    7.750      172
    7.765      157
    7.780      153
    7.795      171
    7.810      184
    7.825      169
    7.840      179
    7.855      153
    7.870      153
    7.885      177
    7.900      160
    7.915      175
    7.930      179
    7.945      172
    7.960      179
    7.975      168
    7.990      150
    8.005      164
    8.020      181
    8.035      161
    8.050      157
    8.065      180
    8.080      183
    8.095      183
    8.110      177
    8.125      166
    8.140      171
    8.155      178
    8.170      169
    8.185      163
    8.200      159
    8.215      169
    8.230      183
    8.245      178
    8.260      155
    8.275      184
    8.290      198
    8.305      188
    8.320      181
    8.335      170
    8.350      184
    8.365      189
    8.380      193
    8.395      194
    8.410      188
    8.425      167
    8.440      173
    8.455      192
    8.470      197
    8.485      197
    8.500      190
    8.515      185
    8.530      160
    8.545      164
    8.560      172
    8.575      196
    8.590      180
    8.605      194
    8.620      197
    8.635      183
    8.650      181
    8.665      181
    8.680      185
    8.695      178
    8.710      176
    8.725      169
    8.740      164
    8.755      173
    8.770      185
    8.785      197
    8.800      170
    8.815      172
    8.830      190
    8.845      203
    8.860      170
    8.875      177
    8.890      183
    8.905      188
    8.920      198
    8.935      184
    8.950      187
    8.965      186
    8.980      180
    8.995      174
    9.010      190
    9.025      192
    9.040      186
    9.055      169
    9.070      183
    9.085      173
    9.100      175
    9.115      183
    9.130      192
    9.145      214
    9.160      192
    9.175      194
    9.190      197
    9.205      179
    9.220      180
    9.235      195
    9.250      198
    9.265      188
    9.280      186
    9.295      198
    9.310      183
    9.325      170
    9.340      173
    9.355      188
    9.370      206
    9.385      199
    9.400      187
    9.415      197
    9.430      213
    9.445      190
    9.460      200
    9.475      188
    9.490      192
    9.505      201
    9.520      203
    9.535      186
    9.550      186
    9.565      203
    9.580      203
    9.595      201
    9.610      207
    9.625      217
    9.640      226
    9.655      218
    9.670      214
    9.685      239
    9.700      267
    9.715      237
    9.730      216
    9.745      210
    9.760      182
    9.775      193
    9.790      210
    9.805      192
    9.820      174
    9.835      178
    9.850      183
    9.865      202
    9.880      210
    9.895      199
    9.910      199
    9.925      170
    9.940      205
    9.955      177
    9.970      209
    9.985      193
   10.000      174
   10.015      187
   10.030      172
   10.045      176
   10.060      186
   10.075      189
   10.090      206
   10.105      194
   10.120      196
   10.135      186
   10.150      205
   10.165      238
   10.180      195
   10.195      216
   10.210      247
   10.225      224
   10.240      232
   10.255      257
   10.270      243
   10.285      281
   10.300      304
   10.315      309
   10.330      351
   10.345      401
   10.360      411
   10.375      370
   10.390      357
   10.405      340
   10.420      284
   10.435      258
   10.450      192
   10.465      180
   10.480      183
   10.495      208
   10.510      190
   10.525      194
   10.540      206
   10.555      195
   10.570      179
   10.585      194
   10.600      200
   10.615      188
   10.630      204
   10.645      194
   10.660      198
   10.675      199
   10.690      240
   10.705      248
   10.720      246
   10.735      268
   10.750      263
   10.765      251
   10.780      229
   10.795      198
   10.810      194
   10.825      193
   10.840      197
   10.855      196
   10.870      192
   10.885      191
   10.900      193
   10.915      216
   10.930      211
   10.945      213
   10.960      216
   10.975      219
   10.990      222
   11.005      239
   11.020      242
   11.035      261
   11.050      291
   11.065      286
   11.080      319
   11.095      359
   11.110      398
   11.125      350
   11.140      282
   11.155      261
   11.170      240
   11.185      231
   11.200      232
   11.215      225
   11.230      207
   11.245      203
   11.260      232
   11.275      262
   11.290      273
   11.305      286
   11.320      257
   11.335      203
   11.350      180
   11.365      188
   11.380      166
   11.395      174
   11.410      161
   11.425      168
   11.440      165
   11.455      168
   11.470      180
   11.485      182
   11.500      178
   11.515      156
   11.530      173
   11.545      185
   11.560      177
   11.575      180
   11.590      165
   11.605      191
   11.620      212
   11.635      202
   11.650      208
   11.665      219
   11.680      234
   11.695      250
   11.710      261
   11.725      294
   11.740      297
   11.755      297
   11.770      317
   11.785      266
   11.800      258
   11.815      241
   11.830      205
   11.845      222
   11.860      222
   11.875      235
   11.890      249
   11.905      245
   11.920      246
   11.935      245
   11.950      244
   11.965      215
   11.980      177
   11.995      179
   12.010      182
   12.025      198
   12.040      194
   12.055      189
   12.070      184
   12.085      171
   12.100      173
   12.115      166
   12.130      166
   12.145      159
   12.160      178
   12.175      171
   12.190      154
   12.205      168
   12.220      173
   12.235      203
   12.250      181
   12.265      192
   12.280      194
   12.295      208
   12.310      240
   12.325      244
   12.340      260
   12.355      330
   12.370      377
   12.385      394
   12.400      455
   12.415      531
   12.430      655
   12.445      745
   12.460      909
   12.475     1151
   12.490     1288
   12.505     1605
   12.520     1977
   12.535     1950
   12.550     1636
   12.565     1338
   12.580     1251
   12.595     1296
   12.610     1334
   12.625     1231
   12.640     1047
   12.655      755
   12.670      533
   12.685      364
   12.700      294
   12.715      260
   12.730      243
   12.745      238
   12.760      248
   12.775      248
   12.790      261
   12.805      281
   12.820      296
   12.835      295
   12.850      402
   12.865      445
   12.880      508
   12.895      652
   12.910      691
   12.925      683
   12.940      653
   12.955      572
   12.970      526
   12.985      590
   13.000      677
   13.015      782
   13.030     1000
   13.045     1216
   13.060     1507
   13.075     1860
   13.090     2209
   13.105     2080
   13.120     1767
   13.135     1565
   13.150     1779
   13.165     2057
   13.180     2448
   13.195     3006
   13.210     3793
   13.225     3582
   13.240     2536
   13.255     1420
   13.270      743
   13.285      502
   13.300      396
   13.315      400
   13.330      401
   13.345      424
   13.360      424
   13.375      503
   13.390      543
   13.405      637
   13.420      721
   13.435      771
   13.450      839
   13.465      844
   13.480      915
   13.495      789
   13.510      578
   13.525      383
   13.540      303
   13.555      260
   13.570      254
   13.585      229
   13.600      236
   13.615      244
   13.630      284
   13.645      309
   13.660      342
   13.675      389
   13.690      417
   13.705      509
   13.720      494
   13.735      425
   13.750      313
   13.765      230
   13.780      199
   13.795      190
   13.810      173
   13.825      160
   13.840      156
   13.855      173
   13.870      164
   13.885      177
   13.900      181
   13.915      174
   13.930      171
   13.945      181
   13.960      181
   13.975      186
   13.990      190
   14.005      203
   14.020      195
   14.035      219
   14.050      241
   14.065      242
   14.080      276
   14.095      282
   14.110      306
   14.125      333
   14.140      410
   14.155      497
   14.170      511
   14.185      488
   14.200      424
   14.215      404
   14.230      423
   14.245      500
   14.260      577
   14.275      537
   14.290      540
   14.305      558
   14.320      634
   14.335      746
   14.350      906
   14.365     1092
   14.380      922
   14.395      652
   14.410      446
   14.425      312
   14.440      239
   14.455      213
   14.470      197
   14.485      180
   14.500      199
   14.515      195
   14.530      160
   14.545      160
   14.560      187
   14.575      166
   14.590      146
   14.605      189
   14.620      201
   14.635      192
   14.650      170
   14.665      178
   14.680      182
   14.695      220
   14.710      198
   14.725      212
   14.740      225
   14.755      258
   14.770      272
   14.785      309
   14.800      390
   14.815      441
   14.830      507
   14.845      630
   14.860      788
   14.875      873
   14.890      981
   14.905      972
   14.920     1143
   14.935     1391
   14.950     1768
   14.965     1798
   14.980     1296
   14.995      892
   15.010      566
   15.025      387
   15.040      365
   15.055      304
   15.070      316
   15.085      324
   15.100      357
   15.115      420
   15.130      437
   15.145      502
   15.160      577
   15.175      609
   15.190      597
   15.205      533
   15.220      447
   15.235      421
   15.250      412
   15.265      352
   15.280      306
   15.295      286
   15.310      286
   15.325      292
   15.340      299
   15.355      333
   15.370      358
   15.385      375
   15.400      410
   15.415      496
   15.430      621
   15.445      742
   15.460      759
   15.475      640
   15.490      464
   15.505      376
   15.520      338
   15.535      323
   15.550      340
   15.565      414
   15.580      436
   15.595      481
   15.610      570
   15.625      673
   15.640      764
   15.655      685
   15.670      500
   15.685      379
   15.700      291
   15.715      242
   15.730      218
   15.745      221
   15.760      221
   15.775      248
   15.790      242
   15.805      267
   15.820      260
   15.835      296
   15.850      290
   15.865      339
   15.880      359
   15.895      428
   15.910      515
   15.925      550
   15.940      710
   15.955      888
   15.970      972
   15.985      954
   16.000      760
   16.015      599
   16.030      422
   16.045      334
   16.060      306
   16.075      320
   16.090      348
   16.105      370
   16.120      454
   16.135      521
   16.150      616
   16.165      636
   16.180      623
   16.195      562
   16.210      607
   16.225      693
   16.240      819
   16.255      996
   16.270     1147
   16.285     1205
   16.300      984
   16.315      771
   16.330      651
   16.345      678
   16.360      768
   16.375      848
   16.390     1067
   16.405     1125
   16.420     1057
   16.435      882
   16.450      775
   16.465      678
   16.480      680
   16.495      760
   16.510      886
   16.525     1083
   16.540     1271
   16.555     1239
   16.570     1092
   16.585      906
   16.600      884
   16.615      926
   16.630      979
   16.645      941
   16.660      898
   16.675      810
   16.690      644
   16.705      491
   16.720      371
   16.735      311
   16.750      303
   16.765      324
   16.780      353
   16.795      353
   16.810      376
   16.825      433
   16.840      523
   16.855      603
   16.870      663
   16.885      659
   16.900      583
   16.915      458
   16.930      327
   16.945      294
   16.960      302
   16.975      296
   16.990      339
   17.005      345
   17.020      400
   17.035      444
   17.050      496
   17.065      529
   17.080      536
   17.095      496
   17.110      442
   17.125      409
   17.140      381
   17.155      376
   17.170      367
   17.185      320
   17.200      314
   17.215      321
   17.230      341
   17.245      392
   17.260      392
   17.275      489
   17.290      561
   17.305      613
   17.320      604
   17.335      524
   17.350      387
   17.365      259
   17.380      223
   17.395      215
   17.410      198
   17.425      214
   17.440      242
   17.455      232
   17.470      238
   17.485      271
   17.500      305
   17.515      326
   17.530      336
   17.545      313
   17.560      345
   17.575      370
   17.590      413
   17.605      365
   17.620      298
   17.635      273
   17.650      222
   17.665      200
   17.680      207
   17.695      187
   17.710      175
   17.725      197
   17.740      181
   17.755      164
   17.770      152
   17.785      170
   17.800      140
   17.815      153
   17.830      170
   17.845      154
   17.860      173
   17.875      149
   17.890      146
   17.905      143
   17.920      156
   17.935      149
   17.950      176
   17.965      190
   17.980      168
   17.995      207
   18.010      209
   18.025      230
   18.040      265
   18.055      292
   18.070      335
   18.085      345
   18.100      373
   18.115      404
   18.130      443
   18.145      441
   18.160      338
   18.175      256
   18.190      248
   18.205      200
   18.220      177
   18.235      175
   18.250      162
   18.265      178
   18.280      210
   18.295      226
   18.310      219
   18.325      288
   18.340      349
   18.355      366
   18.370      431
   18.385      529
   18.400      556
   18.415      536
   18.430      533
   18.445      511
   18.460      513
   18.475      603
   18.490      696
   18.505      719
   18.520      738
   18.535      641
   18.550      553
   18.565      463
   18.580      370
   18.595      307
   18.610      288
   18.625      346
   18.640      363
   18.655      391
   18.670      351
   18.685      372
   18.700      497
   18.715      493
   18.730      540
   18.745      444
   18.760      421
   18.775      387
   18.790      352
   18.805      339
   18.820      314
   18.835      220
   18.850      208
   18.865      198
   18.880      173
   18.895      166
   18.910      183
   18.925      153
   18.940      165
   18.955      176
   18.970      144
   18.985      172
   19.000      155
   19.015      182
   19.030      189
   19.045      178
   19.060      159
   19.075      165
   19.090      148
   19.105      134
   19.120      147
   19.135      142
   19.150      153
   19.165      148
   19.180      156
   19.195      156
   19.210      146
   19.225      151
   19.240      142
   19.255      156
   19.270      163
   19.285      164
   19.300      172
   19.315      190
   19.330      230
   19.345      233
   19.360      270
   19.375      291
   19.390      328
   19.405      389
   19.420      435
   19.435      449
   19.450      482
   19.465      443
   19.480      387
   19.495      315
   19.510      279
   19.525      253
   19.540      247
   19.555      280
   19.570      300
   19.585      349
   19.600      382
   19.615      465
   19.630      553
   19.645      620
   19.660      760
   19.675      938
   19.690     1131
   19.705     1158
   19.720     1073
   19.735      882
   19.750      710
   19.765      661
   19.780      611
   19.795      708
   19.810      813
   19.825      844
   19.840      812
   19.855      698
   19.870      570
   19.885      487
   19.900      415
   19.915      364
   19.930      305
   19.945      269
   19.960      273
   19.975      272
   19.990      288
   20.005      331
   20.020      348
   20.035      372
   20.050      316
   20.065      278
   20.080      225
   20.095      196
   20.110      176
   20.125      174
   20.140      161
   20.155      162
   20.170      170
   20.185      161
   20.200      171
   20.215      163
   20.230      144
   20.245      165
   20.260      182
   20.275      163
   20.290      165
   20.305      181
   20.320      176
   20.335      173
   20.350      178
   20.365      194
   20.380      191
   20.395      221
   20.410      205
   20.425      198
   20.440      205
   20.455      206
   20.470      218
   20.485      206
   20.500      249
   20.515      312
   20.530      341
   20.545      379
   20.560      426
   20.575      460
   20.590      465
   20.605      435
   20.620      396
   20.635      390
   20.650      437
   20.665      488
   20.680      435
   20.695      360
   20.710      312
   20.725      244
   20.740      237
   20.755      241
   20.770      216
   20.785      251
   20.800      217
   20.815      237
   20.830      248
   20.845      222
   20.860      207
   20.875      239
   20.890      204
   20.905      224
   20.920      219
   20.935      229
   20.950      223
   20.965      218
   20.980      202
   20.995      214
   21.010      206
   21.025      218
   21.040      240
   21.055      232
   21.070      227
   21.085      186
   21.100      161
   21.115      163
   21.130      164
   21.145      174
   21.160      155
   21.175      175
   21.190      161
   21.205      187
   21.220      192
   21.235      185
   21.250      218
   21.265      201
   21.280      268
   21.295      288
   21.310      329
   21.325      425
   21.340      470
   21.355      584
   21.370      657
   21.385      681
   21.400      656
   21.415      589
   21.430      502
   21.445      456
   21.460      490
   21.475      506
   21.490      599
   21.505      668
   21.520      827
   21.535     1026
   21.550     1338
   21.565     1659
   21.580     1826
   21.595     1639
   21.610     1287
   21.625      870
   21.640      668
   21.655      535
   21.670      484
   21.685      506
   21.700      498
   21.715      440
   21.730      349
   21.745      293
   21.760      242
   21.775      202
   21.790      189
   21.805      183
   21.820      188
   21.835      182
   21.850      193
   21.865      196
   21.880      191
   21.895      181
   21.910      193
   21.925      206
   21.940      212
   21.955      236
   21.970      219
   21.985      217
   22.000      213
   22.015      222
   22.030      208
   22.045      237
   22.060      224
   22.075      246
   22.090      232
   22.105      239
   22.120      260
   22.135      271
   22.150      328
   22.165      363
   22.180      415
   22.195      370
   22.210      319
   22.225      267
   22.240      241
   22.255      213
   22.270      235
   22.285      244
   22.300      268
   22.315      308
   22.330      387
   22.345      394
   22.360      484
   22.375      529
   22.390      560
   22.405      512
   22.420      427
   22.435      373
   22.450      279
   22.465      277
   22.480      337
   22.495      326
   22.510      396
   22.525      399
   22.540      414
   22.555      491
   22.570      573
   22.585      631
   22.600      648
   22.615      646
   22.630      634
   22.645      566
   22.660      523
   22.675      486
   22.690      423
   22.705      365
   22.720      329
   22.735      311
   22.750      285
   22.765      291
   22.780      300
   22.795      328
   22.810      394
   22.825      438
   22.840      423
   22.855      360
   22.870      339
   22.885      294
   22.900      293
   22.915      316
   22.930      332
   22.945      324
   22.960      340
   22.975      335
   22.990      311
   23.005      290
   23.020      238
   23.035      225
   23.050      211
   23.065      206
   23.080      200
   23.095      224
   23.110      203
   23.125      247
   23.140      263
   23.155      291
   23.170      308
   23.185      276
   23.200      226
   23.215      201
   23.230      181
   23.245      161
   23.260      152
   23.275      158
   23.290      144
   23.305      147
   23.320      150
   23.335      170
   23.350      165
   23.365      153
   23.380      154
   23.395      148
   23.410      162
   23.425      172
   23.440      155
   23.455      141
   23.470      149
   23.485      164
   23.500      152
   23.515      148
   23.530      153
   23.545      165
   23.560      188
   23.575      209
   23.590      219
   23.605      223
   23.620      210
   23.635      211
   23.650      204
   23.665      214
   23.680      207
   23.695      223
   23.710      241
   23.725      311
   23.740      321
   23.755      300
   23.770      304
   23.785      262
   23.800      226
   23.815      210
   23.830      182
   23.845      166
   23.860      174
   23.875      185
   23.890      181
   23.905      188
   23.920      234
   23.935      271
   23.950      295
   23.965      367
   23.980      407
   23.995      394
   24.010      379
   24.025      365
   24.040      271
   24.055      242
   24.070      228
   24.085      202
   24.100      220
   24.115      231
   24.130      227
   24.145      235
   24.160      232
   24.175      238
   24.190      248
   24.205      279
   24.220      263
   24.235      246
   24.250      224
   24.265      193
   24.280      188
   24.295      201
   24.310      209
   24.325      196
   24.340      198
   24.355      178
   24.370      180
   24.385      214
   24.400      210
   24.415      203
   24.430      200
   24.445      188
   24.460      189
   24.475      166
   24.490      189
   24.505      163
   24.520      166
   24.535      168
   24.550      157
   24.565      162
   24.580      161
   24.595      167
   24.610      185
   24.625      175
   24.640      221
   24.655      249
   24.670      247
   24.685      282
   24.700      351
   24.715      334
   24.730      341
   24.745      314
   24.760      277
   24.775      257
   24.790      268
   24.805      286
   24.820      282
   24.835      281
   24.850      286
   24.865      298
   24.880      310
   24.895      327
   24.910      369
   24.925      348
   24.940      319
   24.955      248
   24.970      213
   24.985      189
   25.000      199
   25.015      176
   25.030      170
   25.045      159
   25.060      175
   25.075      187
   25.090      209
   25.105      234
   25.120      233
   25.135      248
   25.150      305
   25.165      294
   25.180      285
   25.195      277
   25.210      278
   25.225      273
   25.240      234
   25.255      241
   25.270      261
   25.285      271
   25.300      281
   25.315      309
   25.330      332
   25.345      403
   25.360      485
   25.375      508
   25.390      523
   25.405      565
   25.420      560
   25.435      502
   25.450      429
   25.465      379
   25.480      275
   25.495      252
   25.510      240
   25.525      242
   25.540      244
   25.555      278
   25.570      328
   25.585      347
   25.600      369
   25.615      352
   25.630      333
   25.645      282
   25.660      261
   25.675      206
   25.690      205
   25.705      199
   25.720      198
   25.735      193
   25.750      199
   25.765      200
   25.780      216
   25.795      236
   25.810      223
   25.825      234
   25.840      260
   25.855      290
   25.870      288
   25.885      283
   25.900      283
   25.915      234
   25.930      210
   25.945      213
   25.960      197
   25.975      193
   25.990      199
   26.005      181
   26.020      184
   26.035      192
   26.050      190
   26.065      187
   26.080      183
   26.095      194
   26.110      188
   26.125      184
   26.140      152
   26.155      138
   26.170      144
   26.185      137
   26.200      150
   26.215      147
   26.230      158
   26.245      159
   26.260      162
   26.275      182
   26.290      171
   26.305      218
   26.320      232
   26.335      254
   26.350      282
   26.365      300
   26.380      278
   26.395      261
   26.410      218
   26.425      180
   26.440      178
   26.455      175
   26.470      183
   26.485      171
   26.500      174
   26.515      174
   26.530      216
   26.545      224
   26.560      276
   26.575      337
   26.590      364
   26.605      405
   26.620      513
   26.635      510
   26.650      496
   26.665      468
   26.680      503
   26.695      450
   26.710      446
   26.725      384
   26.740      281
   26.755      277
   26.770      250
   26.785      227
   26.800      209
   26.815      247
   26.830      215
   26.845      218
   26.860      194
   26.875      204
   26.890      215
   26.905      207
   26.920      206
   26.935      199
   26.950      222
   26.965      194
   26.980      203
   26.995      190
   27.010      195
   27.025      181
   27.040      170
   27.055      201
   27.070      179
   27.085      191
   27.100      206
   27.115      209
   27.130      215
   27.145      229
   27.160      269
   27.175      291
   27.190      345
   27.205      379
   27.220      391
   27.235      397
   27.250      400
   27.265      410
   27.280      414
   27.295      444
   27.310      425
   27.325      450
   27.340      435
   27.355      409
   27.370      414
   27.385      415
   27.400      375
   27.415      343
   27.430      306
   27.445      292
   27.460      259
   27.475      234
   27.490      247
   27.505      226
   27.520      241
   27.535      238
   27.550      272
   27.565      287
   27.580      285
   27.595      287
   27.610      277
   27.625      259
   27.640      250
   27.655      230
   27.670      200
   27.685      186
   27.700      180
   27.715      189
   27.730      174
   27.745      180
   27.760      196
   27.775      185
   27.790      226
   27.805      260
   27.820      275
   27.835      277
   27.850      278
   27.865      250
   27.880      239
   27.895      239
   27.910      253
   27.925      235
   27.940      238
   27.955      240
   27.970      265
   27.985      279
   28.000      270
   28.015      278
   28.030      276
   28.045      263
   28.060      255
   28.075      239
   28.090      224
   28.105      212
   28.120      211
   28.135      203
   28.150      197
   28.165      173
   28.180      178
   28.195      189
   28.210      168
   28.225      164
   28.240      164
   28.255      153
   28.270      149
   28.285      162
   28.300      170
   28.315      190
   28.330      177
   28.345      194
   28.360      199
   28.375      219
   28.390      238
   28.405      218
   28.420      210
   28.435      204
   28.450      210
   28.465      204
   28.480      191
   28.495      191
   28.510      220
   28.525      236
   28.540      254
   28.555      284
   28.570      279
   28.585      295
   28.600      287
   28.615      259
   28.630      268
   28.645      260
   28.660      283
   28.675      261
   28.690      255
   28.705      238
   28.720      244
   28.735      258
   28.750      252
   28.765      258
   28.780      210
   28.795      219
   28.810      226
   28.825      207
   28.840      200
   28.855      188
   28.870      204
   28.885      208
   28.900      221
   28.915      229
   28.930      243
   28.945      258
   28.960      207
   28.975      213
   28.990      196
   29.005      198
   29.020      197
   29.035      194
   29.050      171
   29.065      164
   29.080      175
   29.095      182
   29.110      186
   29.125      183
   29.140      199
   29.155      227
   29.170      229
   29.185      220
   29.200      238
   29.215      243
   29.230      258
   29.245      260
   29.260      261
   29.275      256
   29.290      271
   29.305      305
   29.320      357
   29.335      385
   29.350      393
   29.365      383
   29.380      334
   29.395      300
   29.410      291
   29.425      253
   29.440      252
   29.455      251
   29.470      235
   29.485      247
   29.500      220
   29.515      242
   29.530      245
   29.545      252
   29.560      209
   29.575      217
   29.590      184
   29.605      173
   29.620      180
   29.635      191
   29.650      195
   29.665      182
   29.680      170
   29.695      178
   29.710      184
   29.725      187
   29.740      183
   29.755      186
   29.770      186
   29.785      219
   29.800      210
   29.815      198
   29.830      187
   29.845      205
   29.860      178
   29.875      172
   29.890      174
   29.905      165
   29.920      174
   29.935      167
   29.950      177
   29.965      200
   29.980      184
   29.995      201
   30.010      190
   30.025      181
   30.040      183
   30.055      189
   30.070      199
   30.085      190
   30.100      178
   30.115      196
   30.130      200
   30.145      187
   30.160      200
   30.175      217
   30.190      208
   30.205      217
   30.220      229
   30.235      235
   30.250      240
   30.265      245
   30.280      242
   30.295      279
   30.310      291
   30.325      269
   30.340      224
   30.355      204
   30.370      171
   30.385      149
   30.400      165
   30.415      165
   30.430      170
   30.445      170
   30.460      175
   30.475      183
   30.490      184
   30.505      171
   30.520      184
   30.535      192
   30.550      192
   30.565      225
   30.580      238
   30.595      263
   30.610      274
   30.625      295
   30.640      297
   30.655      289
   30.670      267
   30.685      265
   30.700      258
   30.715      223
   30.730      221
   30.745      218
   30.760      244
   30.775      222
   30.790      229
   30.805      196
   30.820      194
   30.835      186
   30.850      200
   30.865      192
   30.880      184
   30.895      186
   30.910      208
   30.925      165
   30.940      194
   30.955      196
   30.970      202
   30.985      208
   31.000      246
   31.015      222
   31.030      217
   31.045      249
   31.060      239
   31.075      232
   31.090      228
   31.105      205
   31.120      222
   31.135      205
   31.150      208
   31.165      220
   31.180      249
   31.195      243
   31.210      250
   31.225      254
   31.240      243
   31.255      242
   31.270      237
   31.285      226
   31.300      221
   31.315      209
   31.330      241
   31.345      223
   31.360      257
   31.375      266
   31.390      267
   31.405      271
   31.420      270
   31.435      268
   31.450      280
   31.465      279
   31.480      303
   31.495      316
   31.510      373
   31.525      377
   31.540      374
   31.555      334
   31.570      329
   31.585      297
   31.600      263
   31.615      240
   31.630      248
   31.645      245
   31.660      252
   31.675      257
   31.690      233
   31.705      221
   31.720      246
   31.735      241
   31.750      236
   31.765      253
   31.780      247
   31.795      224
   31.810      210
   31.825      198
   31.840      191
   31.855      188
   31.870      197
   31.885      186
   31.900      175
   31.915      155
   31.930      164
   31.945      154
   31.960      162
   31.975      165
   31.990      199
   32.005      189
   32.020      193
   32.035      194
   32.050      185
   32.065      185
   32.080      161
   32.095      168
   32.110      162
   32.125      152
   32.140      155
   32.155      147
   32.170      151
   32.185      147
   32.200      158
   32.215      168
   32.230      149
   32.245      161
   32.260      171
   32.275      164
   32.290      178
   32.305      169
   32.320      153
   32.335      148
   32.350      177
   32.365      173
   32.380      167
   32.395      178
   32.410      161
   32.425      157
   32.440      166
   32.455      156
   32.470      157
   32.485      196
   32.500      196
   32.515      200
   32.530      251
   32.545      263
   32.560      293
   32.575      318
   32.590      346
   32.605      343
   32.620      362
   32.635      358
   32.650      332
   32.665      297
   32.680      268
   32.695      236
   32.710      208
   32.725      185
   32.740      216
   32.755      197
   32.770      182
   32.785      176
   32.800      195
   32.815      224
   32.830      210
   32.845      184
   32.860      182
   32.875      202
   32.890      196
   32.905      206
   32.920      221
   32.935      204
   32.950      187
   32.965      192
   32.980      187
   32.995      226
   33.010      218
   33.025      248
   33.040      246
   33.055      257
   33.070      273
   33.085      275
   33.100      287
   33.115      333
   33.130      361
   33.145      348
   33.160      314
   33.175      292
   33.190      298
   33.205      262
   33.220      267
   33.235      274
   33.250      264
   33.265      247
   33.280      244
   33.295      215
   33.310      224
   33.325      210
   33.340      204
   33.355      240
   33.370      221
   33.385      229
   33.400      250
   33.415      302
   33.430      295
   33.445      320
   33.460      317
   33.475      328
   33.490      302
   33.505      254
   33.520      249
   33.535      237
   33.550      211
   33.565      225
   33.580      267
   33.595      254
   33.610      250
   33.625      266
   33.640      246
   33.655      268
   33.670      229
   33.685      251
   33.700      232
   33.715      202
   33.730      197
   33.745      185
   33.760      196
   33.775      199
   33.790      200
   33.805      206
   33.820      194
   33.835      182
   33.850      163
   33.865      166
   33.880      187
   33.895      177
   33.910      165
   33.925      155
   33.940      177
   33.955      159
   33.970      176
   33.985      172
   34.000      173
   34.015      170
   34.030      186
   34.045      192
   34.060      202
   34.075      198
   34.090      205
   34.105      247
   34.120      250
   34.135      231
   34.150      213
   34.165      205
   34.180      211
   34.195      213
   34.210      216
   34.225      190
   34.240      172
   34.255      154
   34.270      151
   34.285      172
   34.300      166
   34.315      183
   34.330      181
   34.345      215
   34.360      252
   34.375      209
   34.390      232
   34.405      227
   34.420      201
   34.435      191
   34.450      200
   34.465      182
   34.480      191
   34.495      197
   34.510      214
   34.525      195
   34.540      203
   34.555      206
   34.570      194
   34.585      200
   34.600      203
   34.615      209
   34.630      187
   34.645      192
   34.660      211
   34.675      228
   34.690      221
   34.705      220
   34.720      221
   34.735      225
   34.750      208
   34.765      214
   34.780      221
   34.795      239
   34.810      253
   34.825      251
   34.840      243
   34.855      240
   34.870      272
   34.885      276
   34.900      261
   34.915      265
   34.930      280
   34.945      297
   34.960      303
   34.975      321
   34.990      317
   35.005      349
   35.020      375
   35.035      384
   35.050      382
   35.065      378
   35.080      370
   35.095      356
   35.110      331
   35.125      333
   35.140      338
   35.155      357
   35.170      360
   35.185      376
   35.200      406
   35.215      363
   35.230      352
   35.245      354
   35.260      334
   35.275      336
   35.290      335
   35.305      296
   35.320      255
   35.335      252
   35.350      235
   35.365      234
   35.380      207
   35.395      192
   35.410      167
   35.425      166
   35.440      163
   35.455      169
   35.470      166
   35.485      153
   35.500      165
   35.515      162
   35.530      169
   35.545      172
   35.560      171
   35.575      163
   35.590      170
   35.605      164
   35.620      164
   35.635      159
   35.650      162
   35.665      161
   35.680      150
   35.695      162
   35.710      171
   35.725      161
   35.740      176
   35.755      169
   35.770      174
   35.785      196
   35.800      177
   35.815      172
   35.830      188
   35.845      205
   35.860      205
   35.875      232
   35.890      239
   35.905      230
   35.920      216
   35.935      215
   35.950      187
   35.965      184
   35.980      184
   35.995      165
   36.010      165
   36.025      172
   36.040      171
   36.055      159
   36.070      171
   36.085      163
   36.100      159
   36.115      168
   36.130      173
   36.145      183
   36.160      168
   36.175      158
   36.190      163
   36.205      167
   36.220      159
   36.235      156
   36.250      166
   36.265      166
   36.280      176
   36.295      170
   36.310      182
   36.325      199
   36.340      212
   36.355      246
   36.370      213
   36.385      198
   36.400      173
   36.415      169
   36.430      169
   36.445      172
   36.460      182
   36.475      161
   36.490      158
   36.505      150
   36.520      147
   36.535      172
   36.550      192
   36.565      179
   36.580      182
   36.595      156
   36.610      163
   36.625      171
   36.640      184
   36.655      178
   36.670      196
   36.685      190
   36.700      193
   36.715      206
   36.730      192
   36.745      191
   36.760      180
   36.775      177
   36.790      189
   36.805      208
   36.820      187
   36.835      212
   36.850      202
   36.865      203
   36.880      213
   36.895      231
   36.910      207
   36.925      197
   36.940      184
   36.955      174
   36.970      154
   36.985      142
   37.000      152
   37.015      132
   37.030      137
   37.045      136
   37.060      156
   37.075      134
   37.090      145
   37.105      144
   37.120      161
   37.135      147
   37.150      145
   37.165      132
   37.180      133
   37.195      145
   37.210      145
   37.225      134
   37.240      144
   37.255      154
   37.270      155
   37.285      160
   37.300      148
   37.315      160
   37.330      152
   37.345      149
   37.360      156
   37.375      168
   37.390      172
   37.405      170
   37.420      178
   37.435      179
   37.450      156
   37.465      160
   37.480      181
   37.495      179
   37.510      159
   37.525      163
   37.540      184
   37.555      159
   37.570      182
   37.585      201
   37.600      206
   37.615      202
   37.630      208
   37.645      177
   37.660      180
   37.675      176
   37.690      149
   37.705      154
   37.720      151
   37.735      151
   37.750      154
   37.765      160
   37.780      184
   37.795      171
   37.810      157
   37.825      158
   37.840      156
   37.855      154
   37.870      143
   37.885      149
   37.900      170
   37.915      187
   37.930      190
   37.945      197
   37.960      213
   37.975      230
   37.990      218
   38.005      205
   38.020      188
   38.035      182
   38.050      170
   38.065      169
   38.080      192
   38.095      170
   38.110      162
   38.125      157
   38.140      158
   38.155      165
   38.170      168
   38.185      170
   38.200      174
   38.215      158
   38.230      173
   38.245      174
   38.260      181
   38.275      176
   38.290      166
   38.305      177
   38.320      182
   38.335      182
   38.350      169
   38.365      154
   38.380      183
   38.395      177
   38.410      163
   38.425      184
   38.440      187
   38.455      186
   38.470      197
   38.485      175
   38.500      186
   38.515      191
   38.530      168
   38.545      143
   38.560      174
   38.575      179
   38.590      180
   38.605      178
   38.620      180
   38.635      164
   38.650      160
   38.665      148
   38.680      173
   38.695      159
   38.710      153
   38.725      147
   38.740      139
   38.755      138
   38.770      142
   38.785      151
   38.800      135
   38.815      142
   38.830      150
   38.845      133
   38.860      147
   38.875      145
   38.890      127
   38.905      148
   38.920      144
   38.935      115
   38.950      125
   38.965      140
   38.980      138
   38.995      146
   39.010      130
   39.025      125
   39.040      123
   39.055      130
   39.070      142
   39.085      133
   39.100      121
   39.115      129
   39.130      138
   39.145      135
   39.160      137
   39.175      160
   39.190      137
   39.205      156
   39.220      152
   39.235      151
   39.250      146
   39.265      141
   39.280      161
   39.295      153
   39.310      167
   39.325      166
   39.340      165
   39.355      170
   39.370      199
   39.385      184
   39.400      175
   39.415      160
   39.430      179
   39.445      167
   39.460      189
   39.475      172
   39.490      155
   39.505      150
   39.520      151
   39.535      153
   39.550      153
   39.565      131
   39.580      137
   39.595      135
   39.610      148
   39.625      135
   39.640      119
   39.655      150
   39.670      140
   39.685      125
   39.700      121
   39.715      157
   39.730      150
   39.745      157
   39.760      141
   39.775      149
   39.790      152
   39.805      134
   39.820      148
   39.835      155
   39.850      149
   39.865      153
   39.880      173
   39.895      165
   39.910      149
   39.925      175
   39.940      185
   39.955      171
   39.970      194
   39.985      180
   40.000      183
   40.015      207
   40.030      222
   40.045      223
   40.060      223
   40.075      207
   40.090      229
   40.105      199
   40.120      207
   40.135      174
   40.150      161
   40.165      168
   40.180      164
   40.195      170
   40.210      174
   40.225      173
   40.240      153
   40.255      168
   40.270      189
   40.285      184
   40.300      208
   40.315      199
   40.330      212
   40.345      197
   40.360      217
   40.375      183
   40.390      196
   40.405      197
   40.420      200
   40.435      208
   40.450      162
   40.465      165
   40.480      162
   40.495      157
   40.510      146
   40.525      145
   40.540      157
   40.555      124
   40.570      123
   40.585      132
   40.600      157
   40.615      147
   40.630      154
   40.645      156
   40.660      136
   40.675      130
   40.690      144
   40.705      155
   40.720      134
   40.735      126
   40.750      140
   40.765      129
   40.780      122
   40.795      131
   40.810      129
   40.825      137
   40.840      122
   40.855      123
   40.870      133
   40.885      123
   40.900      132
   40.915      120
   40.930      125
   40.945      138
   40.960      138
   40.975      130
   40.990      131
   41.005      140
   41.020      125
   41.035      151
   41.050      146
   41.065      131
   41.080      138
   41.095      123
   41.110      147
   41.125      153
   41.140      149
   41.155      150
   41.170      132
   41.185      141
   41.200      143
   41.215      126
   41.230      141
   41.245      158
   41.260      164
   41.275      147
   41.290      150
   41.305      147
   41.320      159
   41.335      164
   41.350      145
   41.365      168
   41.380      147
   41.395      142
   41.410      158
   41.425      135
   41.440      135
   41.455      149
   41.470      123
   41.485      137
   41.500      142
   41.515      153
   41.530      145
   41.545      165
   41.560      170
   41.575      151
   41.590      140
   41.605      150
   41.620      157
   41.635      171
   41.650      160
   41.665      159
   41.680      166
   41.695      169
   41.710      150
   41.725      146
   41.740      164
   41.755      147
   41.770      145
   41.785      150
   41.800      146
   41.815      147
   41.830      158
   41.845      141
   41.860      160
   41.875      172
   41.890      142
   41.905      149
   41.920      152
   41.935      152
   41.950      145
   41.965      155
   41.980      143
   41.995      136
   42.010      148
   42.025      160
   42.040      166
   42.055      153
   42.070      143
   42.085      143
   42.100      139
   42.115      129
   42.130      143
   42.145      161
   42.160      144
   42.175      130
   42.190      131
   42.205      142
   42.220      142
   42.235      132
   42.250      125
   42.265      141
   42.280      137
   42.295      142
   42.310      152
   42.325      148
   42.340      143
   42.355      133
   42.370      146
   42.385      128
   42.400      141
   42.415      156
   42.430      139
   42.445      132
   42.460      170
   42.475      143
   42.490      121
   42.505      145
   42.520      158
   42.535      156
   42.550      177
   42.565      175
   42.580      167
   42.595      154
   42.610      160
   42.625      160
   42.640      150
   42.655      162
   42.670      151
   42.685      164
   42.700      156
   42.715      138
   42.730      163
   42.745      153
   42.760      132
   42.775      134
   42.790      147
   42.805      156
   42.820      138
   42.835      148
   42.850      129
   42.865      133
   42.880      134
   42.895      141
   42.910      149
   42.925      128
   42.940      133
   42.955      114
   42.970      144
   42.985      144
   43.000      131
   43.015      130
   43.030      126
   43.045      108
   43.060      120
   43.075      128
   43.090      132
   43.105      138
   43.120      137
   43.135      138
   43.150      137
   43.165      140
   43.180      155
   43.195      131
   43.210      123
   43.225      146
   43.240      144
   43.255      145
   43.270      132
   43.285      130
   43.300      138
   43.315      135
   43.330      137
   43.345      128
   43.360      130
   43.375      148
   43.390      154
   43.405      127
   43.420      145
   43.435      131
   43.450      128
   43.465      128
   43.480      124
   43.495      149
   43.510      153
   43.525      130
   43.540      155
   43.555      169
   43.570      139
   43.585      145
   43.600      153
   43.615      151
   43.630      160
   43.645      161
   43.660      160
   43.675      142
   43.690      133
   43.705      150
   43.720      143
   43.735      145
   43.750      162
   43.765      143
   43.780      163
   43.795      151
   43.810      129
   43.825      143
   43.840      149
   43.855      149
   43.870      133
   43.885      141
   43.900      153
   43.915      148
   43.930      141
   43.945      166
   43.960      180
   43.975      164
   43.990      168
   44.005      158
   44.020      138
   44.035      142
   44.050      158
   44.065      152
   44.080      145
   44.095      161
   44.110      168
   44.125      174
   44.140      155
   44.155      139
   44.170      157
   44.185      160
   44.200      161
   44.215      172
   44.230      174
   44.245      165
   44.260      176
   44.275      186
   44.290      191
   44.305      176
   44.320      151
   44.335      152
   44.350      148
   44.365      164
   44.380      146
   44.395      144
   44.410      147
   44.425      154
   44.440      176
   44.455      179
   44.470      178
   44.485      176
   44.500      175
   44.515      183
   44.530      184
   44.545      181
   44.560      207
   44.575      188
   44.590      191
   44.605      196
   44.620      199
   44.635      204
   44.650      195
   44.665      189
   44.680      183
   44.695      171
   44.710      157
   44.725      167
   44.740      172
   44.755      184
   44.770      154
   44.785      160
   44.800      176
   44.815      158
   44.830      167
   44.845      160
   44.860      151
   44.875      145
   44.890      148
   44.905      160
   44.920      166
   44.935      153
   44.950      142
   44.965      149
   44.980      163
   44.995      161
   45.010      169
   45.025      156
   45.040      156
   45.055      172
   45.070      168
   45.085      140
   45.100      144
   45.115      147
   45.130      143
   45.145      128
   45.160      128
   45.175      130
   45.190      162
   45.205      132
   45.220      128
   45.235      143
   45.250      146
   45.265      137
   45.280      131
   45.295      141
   45.310      131
   45.325      115
   45.340      117
   45.355      114
   45.370      130
   45.385      133
   45.400      125
   45.415      109
   45.430      127
   45.445      138
   45.460      141
   45.475      144
   45.490      133
   45.505      131
   45.520      134
   45.535      119
   45.550      137
   45.565      125
   45.580      135
   45.595      139
   45.610      139
   45.625      135
   45.640      150
   45.655      167
   45.670      189
   45.685      198
   45.700      178
   45.715      179
   45.730      153
   45.745      161
   45.760      138
   45.775      141
   45.790      146
   45.805      145
   45.820      125
   45.835      131
   45.850      126
   45.865      136
   45.880      143
   45.895      125
   45.910      129
   45.925      137
   45.940      135
   45.955      137
   45.970      134
   45.985      146
