    4.000      176
    4.015      203
    4.030      204
    4.045      198
    4.060      192
    4.075      190
    4.090      188
    4.105      186
    4.120      182
    4.135      200
    4.150      201
    4.165      197
    4.180      188
    4.195      205
    4.210      190
    4.225      197
    4.240      190
    4.255      194
    4.270      185
    4.285      184
    4.300      200
    4.315      201
    4.330      188
    4.345      172
    4.360      186
    4.375      156
    4.390      193
    4.405      200
    4.420      175
    4.435      198
    4.450      176
    4.465      194
    4.480      170
    4.495      199
    4.510      186
    4.525      185
    4.540      181
    4.555      192
    4.570      184
    4.585      202
    4.600      203
    4.615      184
    4.630      162
    4.645      195
    4.660      180
    4.675      169
    4.690      178
    4.705      179
    4.720      207
    4.735      199
    4.750      198
    4.765      187
    4.780      204
    4.795      196
    4.810      198
    4.825      204
    4.840      201
    4.855      188
    4.870      210
    4.885      183
    4.900      183
    4.915      185
    4.930      188
    4.945      179
    4.960      187
    4.975      211
    4.990      199
    5.005      162
    5.020      186
    5.035      192
    5.050      212
    5.065      185
    5.080      180
    5.095      191
    5.110      179
    5.125      192
    5.140      202
    5.155      184
    5.170      176
    5.185      184
    5.200      203
    5.215      186
    5.230      176
    5.245      201
    5.260      200
    5.275      195
    5.290      196
    5.305      208
    5.320      221
    5.335      204
    5.350      195
    5.365      174
    5.380      169
    5.395      184
    5.410      184
    5.425      187
    5.440      194
    5.455      189
    5.470      177
    5.485      181
    5.500      171
    5.515      158
    5.530      167
    5.545      181
    5.560      203
    5.575      188
    5.590      174
    5.605      166
    5.620      183
    5.635      166
    5.650      184
    5.665      165
    5.680      165
    5.695      165
    5.710      181
    5.725      169
    5.740      184
    5.755      166
    5.770      178
    5.785      184
    5.800      169
    5.815      185
    5.830      170
    5.845      168
    5.860      174
    5.875      188
    5.890      173
    5.905      181
    5.920      184
    5.935      198
    5.950      169
    5.965      186
    5.980      209
    5.995      189
    6.010      188
    6.025      173
    6.040      178
    6.055      175
    6.070      175
    6.085      180
    6.100      192
    6.115      191
    6.130      193
    6.145      203
    6.160      222
    6.175      227
    6.190      185
    6.205      178
    6.220      184
    6.235      205
    6.250      198
    6.265      201
    6.280      208
    6.295      227
    6.310      210
    6.325      218
    6.340      234
    6.355      246
    6.370      259
    6.385      253
    6.400      262
    6.415      277
    6.430      306
    6.445      287
    6.460      321
    6.475      349
    6.490      387
    6.505      415
    6.520      425
    6.535      395
    6.550      416
    6.565      391
    6.580      328
    6.595      244
    6.610      206
    6.625      172
    6.640      179
    6.655      186
    6.670      187
    6.685      178
    6.700      191
    6.715      177
    6.730      163
    6.745      175
    6.760      166
    6.775      155
    6.790      175
    6.805      193
    6.820      169
    6.835      198
    6.850      207
    6.865      195
    6.880      198
    6.895      190
    6.910      188
    6.925      184
    6.940      219
    6.955      217
    6.970      196
    6.985      212
    7.000      189
    7.015      204
    7.030      247
    7.045      258
    7.060      269
    7.075      276
    7.090      276
    7.105      211
    7.120      183
    7.135      180
    7.150      173
    7.165      177
    7.180      191
    7.195      211
    7.210      183
    7.225      177
    7.240      204
    7.255      184
    7.270      179
    7.285      191
    7.300      195
    7.315      185
    7.330      182
    7.345      191
    7.360      190
    7.375      181
    7.390      188
    7.405      181
    7.420      179
    7.435      188
    7.450      209
    7.465      192
    7.480      198
    7.495      200
    7.510      206
    7.525      222
    7.540      247
    7.555      248
    7.570      219
    7.585      200
    7.600      196
    7.615      192
    7.630      179
    7.645      191
    7.660      173
    7.675      174
    7.690      155
    7.705      180
    7.720      196
    7.735      184
    7.750      181
    7.765      188
    7.780      187
    7.795      166
    7.810      191
    7.825      191
    7.840      191
    7.855      199
    7.870      186
    7.885      196
    7.900      175
    7.915      182
    7.930      173
    7.945      177
    7.960      190
    7.975      182
    7.990      173
    8.005      181
    8.020      182
    8.035      184
    8.050      188
    8.065      185
    8.080      193
    8.095      192
    8.110      184
    8.125      178
    8.140      198
    8.155      198
    8.170      157
    8.185      160
    8.200      208
    8.215      197
    8.230      179
    8.245      179
    8.260      173
    8.275      186
    8.290      181
    8.305      195
    8.320      191
    8.335      204
    8.350      204
    8.365      192
    8.380      160
    8.395      187
    8.410      192
    8.425      189
    8.440      182
    8.455      163
    8.470      182
    8.485      190
    8.500      204
    8.515      170
    8.530      163
    8.545      171
    8.560      191
    8.575      174
    8.590      161
    8.605      185
    8.620      176
    8.635      161
    8.650      197
    8.665      195
    8.680      197
    8.695      187
    8.710      195
    8.725      176
    8.740      180
    8.755      187
    8.770      204
    8.785      182
    8.800      215
    8.815      181
    8.830      205
    8.845      194
    8.860      210
    8.875      202
    8.890      195
    8.905      200
    8.920      192
    8.935      215
    8.950      205
    8.965      198
    8.980      204
    8.995      194
    9.010      189
    9.025      182
    9.040      195
    9.055      195
    9.070      185
    9.085      210
    9.100      210
    9.115      211
    9.130      187
    9.145      197
    9.160      203
    9.175      204
    9.190      220
    9.205      209
    9.220      197
    9.235      201
    9.250      193
    9.265      183
    9.280      202
    9.295      207
    9.310      212
    9.325      220
    9.340      215
    9.355      190
    9.370      160
    9.385      210
    9.400      217
    9.415      204
    9.430      196
    9.445      196
    9.460      179
    9.475      216
    9.490      190
    9.505      187
    9.520      186
    9.535      207
    9.550      204
    9.565      221
    9.580      236
    9.595      194
    9.610      210
    9.625      229
    9.640      228
    9.655      213
    9.670      207
    9.685      221
    9.700      230
    9.715      216
    9.730      201
    9.745      216
    9.760      196
    9.775      192
    9.790      194
    9.805      192
    9.820      211
    9.835      196
    9.850      212
    9.865      181
    9.880      208
    9.895      220
    9.910      215
    9.925      191
    9.940      190
    9.955      190
    9.970      206
    9.985      186
   10.000      183
   10.015      204
   10.030      179
   10.045      193
   10.060      228
   10.075      224
   10.090      194
   10.105      206
   10.120      199
   10.135      210
   10.150      235
   10.165      232
   10.180      214
   10.195      240
   10.210      231
   10.225      216
   10.240      236
   10.255      269
   10.270      284
   10.285      298
   10.300      336
   10.315      359
   10.330      343
   10.345      303
   10.360      225
   10.375      202
   10.390      202
   10.405      222
   10.420      203
   10.435      180
   10.450      181
   10.465      197
   10.480      206
   10.495      204
   10.510      214
   10.525      217
   10.540      196
   10.555      203
   10.570      201
   10.585      223
   10.600      204
   10.615      203
   10.630      224
   10.645      227
   10.660      250
   10.675      247
   10.690      274
   10.705      268
   10.720      222
   10.735      203
   10.750      230
   10.765      214
   10.780      218
   10.795      216
   10.810      197
   10.825      211
   10.840      211
   10.855      202
   10.870      201
   10.885      203
   10.900      207
   10.915      228
   10.930      232
   10.945      231
   10.960      254
   10.975      251
   10.990      264
   11.005      269
   11.020      285
   11.035      321
   11.050      356
   11.065      368
   11.080      351
   11.095      293
   11.110      257
   11.125      241
   11.140      233
   11.155      227
   11.170      206
   11.185      217
   11.200      231
   11.215      217
   11.230      239
   11.245      258
   11.260      263
   11.275      261
   11.290      251
   11.305      228
   11.320      181
   11.335      212
   11.350      203
   11.365      199
   11.380      195
   11.395      196
   11.410      188
   11.425      205
   11.440      200
   11.455      194
   11.470      195
   11.485      199
   11.500      198
   11.515      188
   11.530      216
   11.545      207
   11.560      204
   11.575      219
   11.590      233
   11.605      246
   11.620      239
   11.635      231
   11.650      242
   11.665      267
   11.680      289
   11.695      305
   11.710      268
   11.725      261
   11.740      255
   11.755      218
   11.770      217
   11.785      199
   11.800      229
   11.815      225
   11.830      251
   11.845      254
   11.860      255
   11.875      272
   11.890      264
   11.905      272
   11.920      240
   11.935      216
   11.950      225
   11.965      216
   11.980      187
   11.995      187
   12.010      199
   12.025      201
   12.040      200
   12.055      205
   12.070      206
   12.085      197
   12.100      207
   12.115      216
   12.130      209
   12.145      203
   12.160      210
   12.175      220
   12.190      209
   12.205      214
   12.220      220
   12.235      232
   12.250      260
   12.265      243
   12.280      257
   12.295      255
   12.310      310
   12.325      344
   12.340      380
   12.355      451
   12.370      512
   12.385      600
   12.400      699
   12.415      820
   12.430      975
   12.445     1153
   12.460     1443
   12.475     1770
   12.490     2004
   12.505     1859
   12.520     1584
   12.535     1427
   12.550     1520
   12.565     1532
   12.580     1329
   12.595      997
   12.610      682
   12.625      433
   12.640      341
   12.655      282
   12.670      250
   12.685      268
   12.700      257
   12.715      276
   12.730      267
   12.745      281
   12.760      327
   12.775      325
   12.790      363
   12.805      384
   12.820      413
   12.835      467
   12.850      584
   12.865      597
   12.880      550
   12.895      511
   12.910      494
   12.925      513
   12.940      600
   12.955      713
   12.970      817
   12.985      982
   13.000     1179
   13.015     1500
   13.030     1887
   13.045     2296
   13.060     2405
   13.075     2096
   13.090     1837
   13.105     1859
   13.120     2068
   13.135     2731
   13.150     3482
   13.165     3438
   13.180     2534
   13.195     1485
   13.210      731
   13.225      501
   13.240      417
   13.255      408
   13.270      401
   13.285      451
   13.300      456
   13.315      472
   13.330      500
   13.345      604
   13.360      720
   13.375      771
   13.390      848
   13.405      850
   13.420      874
   13.435      794
   13.450      586
   13.465      418
   13.480      336
   13.495      300
   13.510      288
   13.525      275
   13.540      285
   13.555      265
   13.570      287
   13.585      313
   13.600      309
   13.615      348
   13.630      395
   13.645      460
   13.660      482
   13.675      450
   13.690      354
   13.705      290
   13.720      249
   13.735      239
   13.750      215
   13.765      192
   13.780      220
   13.795      216
   13.810      224
   13.825      220
   13.840      186
   13.855      204
   13.870      211
   13.885      226
   13.900      214
   13.915      219
   13.930      204
   13.945      212
   13.960      256
   13.975      244
   13.990      251
   14.005      258
   14.020      276
   14.035      272
   14.050      306
   14.065      319
   14.080      374
   14.095      451
   14.110      525
   14.125      518
   14.140      515
   14.155      468
   14.170      442
   14.185      446
   14.200      462
   14.215      455
   14.230      419
   14.245      410
   14.260      460
   14.275      557
   14.290      593
   14.305      749
   14.320      860
   14.335      869
   14.350      727
   14.365      522
   14.380      355
   14.395      293
   14.410      258
   14.425      241
   14.440      246
   14.455      238
   14.470      233
   14.485      228
   14.500      236
   14.515      227
   14.530      222
   14.545      251
   14.560      227
   14.575      218
   14.590      221
   14.605      226
   14.620      240
   14.635      214
   14.650      225
   14.665      272
   14.680      281
   14.695      316
   14.710      315
   14.725      330
   14.740      356
   14.755      465
   14.770      476
   14.785      586
   14.800      636
   14.815      758
   14.830      933
   14.845     1021
   14.860     1155
   14.875     1310
   14.890     1530
   14.905     1727
   14.920     1404
   14.935      999
   14.950      604
   14.965      432
   14.980      416
   14.995      359
   15.010      338
   15.025      346
   15.040      378
   15.055      416
   15.070      447
   15.085      493
   15.100      568
   15.115      636
   15.130      658
   15.145      636
   15.160      548
   15.175      449
   15.190      455
   15.205      415
   15.220      331
   15.235      313
   15.250      294
   15.265      284
   15.280      317
   15.295      340
   15.310      385
   15.325      393
   15.340      430
   15.355      487
   15.370      572
   15.385      605
   15.400      672
   15.415      548
   15.430      449
   15.445      357
   15.460      299
   15.475      330
   15.490      323
   15.505      361
   15.520      414
   15.535      427
   15.550      509
   15.565      580
   15.580      629
   15.595      624
   15.610      578
   15.625      463
   15.640      381
   15.655      310
   15.670      310
   15.685      302
   15.700      277
   15.715      284
   15.730      287
   15.745      308
   15.760      285
   15.775      274
   15.790      317
   15.805      322
   15.820      362
   15.835      406
   15.850      442
   15.865      489
   15.880      583
   15.895      680
   15.910      731
   15.925      712
   15.940      737
   15.955      689
   15.970      612
   15.985      484
   16.000      375
   16.015      385
   16.030      370
   16.045      370
   16.060      396
   16.075      484
   16.090      556
   16.105      589
   16.120      588
   16.135      564
   16.150      580
   16.165      578
   16.180      685
   16.195      819
   16.210     1047
   16.225     1181
   16.240     1152
   16.255     1004
   16.270      817
   16.285      705
   16.300      725
   16.315      834
   16.330      923
   16.345      903
   16.360      781
   16.375      696
   16.390      679
   16.405      696
   16.420      725
   16.435      736
   16.450      804
   16.465      981
   16.480     1104
   16.495     1198
   16.510     1155
   16.525      965
   16.540      890
   16.555      943
   16.570      940
   16.585      921
   16.600      776
   16.615      578
   16.630      464
   16.645      401
   16.660      349
   16.675      372
   16.690      395
   16.705      366
   16.720      371
   16.735      404
   16.750      430
   16.765      485
   16.780      574
   16.795      641
   16.810      602
   16.825      503
   16.840      398
   16.855      351
   16.870      318
   16.885      311
   16.900      303
   16.915      313
   16.930      343
   16.945      373
   16.960      394
   16.975      414
   16.990      452
   17.005      477
   17.020      442
   17.035      365
   17.050      365
   17.065      362
   17.080      336
   17.095      351
   17.110      364
   17.125      335
   17.140      335
   17.155      328
   17.170      331
   17.185      341
   17.200      367
   17.215      396
   17.230      450
   17.245      495
   17.260      586
   17.275      589
   17.290      487
   17.305      378
   17.320      294
   17.335      282
   17.350      276
   17.365      282
   17.380      288
   17.395      311
   17.410      346
   17.425      355
   17.440      334
   17.455      349
   17.470      340
   17.485      324
   17.500      362
   17.515      387
   17.530      376
   17.545      368
   17.560      339
   17.575      318
   17.590      291
   17.605      286
   17.620      261
   17.635      224
   17.650      230
   17.665      268
   17.680      266
   17.695      248
   17.710      244
   17.725      243
   17.740      199
   17.755      212
   17.770      194
   17.785      204
   17.800      214
   17.815      216
   17.830      215
   17.845      211
   17.860      216
   17.875      223
   17.890      237
   17.905      232
   17.920      226
   17.935      236
   17.950      255
   17.965      257
   17.980      292
   17.995      363
   18.010      366
   18.025      408
   18.040      433
   18.055      466
   18.070      403
   18.085      353
   18.100      265
   18.115      222
   18.130      200
   18.145      239
   18.160      248
   18.175      226
   18.190      225
   18.205      248
   18.220      238
   18.235      253
   18.250      283
   18.265      301
   18.280      338
   18.295      377
   18.310      429
   18.325      487
   18.340      533
   18.355      538
   18.370      513
   18.385      511
   18.400      582
   18.415      629
   18.430      662
   18.445      630
   18.460      577
   18.475      575
   18.490      554
   18.505      562
   18.520      473
   18.535      432
   18.550      425
   18.565      462
   18.580      445
   18.595      472
   18.610      533
   18.625      565
   18.640      608
   18.655      567
   18.670      472
   18.685      392
   18.700      348
   18.715      329
   18.730      342
   18.745      341
   18.760      303
   18.775      300
   18.790      261
   18.805      239
   18.820      226
   18.835      238
   18.850      227
   18.865      205
   18.880      219
   18.895      232
   18.910      212
   18.925      192
   18.940      227
   18.955      230
   18.970      213
   18.985      213
   19.000      225
   19.015      198
   19.030      213
   19.045      223
   19.060      232
   19.075      215
   19.090      229
   19.105      212
   19.120      213
   19.135      206
   19.150      196
   19.165      190
   19.180      216
   19.195      204
   19.210      212
   19.225      206
   19.240      230
   19.255      250
   19.270      278
   19.285      298
   19.300      321
   19.315      311
   19.330      340
   19.345      394
   19.360      418
   19.375      427
   19.390      375
   19.405      343
   19.420      318
   19.435      258
   19.450      274
   19.465      247
   19.480      261
   19.495      284
   19.510      313
   19.525      334
   19.540      366
   19.555      402
   19.570      490
   19.585      572
   19.600      700
   19.615      896
   19.630      999
   19.645     1051
   19.660     1012
   19.675      838
   19.690      733
   19.705      663
   19.720      674
   19.735      776
   19.750      768
   19.765      750
   19.780      702
   19.795      596
   19.810      508
   19.825      388
   19.840      331
   19.855      292
   19.870      297
   19.885      273
   19.900      264
   19.915      297
   19.930      358
   19.945      379
   19.960      353
   19.975      320
   19.990      284
   20.005      236
   20.020      241
   20.035      216
   20.050      217
   20.065      206
   20.080      208
   20.095      210
   20.110      196
   20.125      192
   20.140      185
   20.155      176
   20.170      193
   20.185      223
   20.200      218
   20.215      204
   20.230      224
   20.245      213
   20.260      192
   20.275      204
   20.290      212
   20.305      216
   20.320      219
   20.335      232
   20.350      232
   20.365      233
   20.380      255
   20.395      257
   20.410      253
   20.425      251
   20.440      301
   20.455      343
   20.470      355
   20.485      400
   20.500      415
   20.515      362
   20.530      334
   20.545      338
   20.560      321
   20.575      363
   20.590      402
   20.605      410
   20.620      365
   20.635      323
   20.650      299
   20.665      248
   20.680      236
   20.695      255
   20.710      258
   20.725      249
   20.740      261
   20.755      254
   20.770      229
   20.785      240
   20.800      247
   20.815      237
   20.830      223
   20.845      231
   20.860      255
   20.875      245
   20.890      265
   20.905      245
   20.920      262
   20.935      269
   20.950      287
   20.965      273
   20.980      249
   20.995      254
   21.010      230
   21.025      211
   21.040      205
   21.055      213
   21.070      208
   21.085      206
   21.100      194
   21.115      206
   21.130      205
   21.145      227
   21.160      236
   21.175      220
   21.190      239
   21.205      261
   21.220      293
   21.235      330
   21.250      363
   21.265      406
   21.280      457
   21.295      581
   21.310      638
   21.325      662
   21.340      580
   21.355      502
   21.370      485
   21.385      449
   21.400      528
   21.415      577
   21.430      658
   21.445      849
   21.460     1108
   21.475     1374
   21.490     1624
   21.505     1635
   21.520     1388
   21.535      955
   21.550      752
   21.565      589
   21.580      507
   21.595      479
   21.610      410
   21.625      370
   21.640      315
   21.655      308
   21.670      288
   21.685      261
   21.700      234
   21.715      241
   21.730      223
   21.745      222
   21.760      218
   21.775      227
   21.790      223
   21.805      186
   21.820      207
   21.835      221
   21.850      210
   21.865      214
   21.880      215
   21.895      195
   21.910      218
   21.925      196
   21.940      187
   21.955      211
   21.970      249
   21.985      227
   22.000      271
   22.015      271
   22.030      286
   22.045      323
   22.060      356
   22.075      357
   22.090      358
   22.105      340
   22.120      280
   22.135      245
   22.150      243
   22.165      250
   22.180      243
   22.195      242
   22.210      265
   22.225      321
   22.240      346
   22.255      323
   22.270      362
   22.285      371
   22.300      410
   22.315      466
   22.330      466
   22.345      503
   22.360      432
   22.375      384
   22.390      366
   22.405      380
   22.420      387
   22.435      431
   22.450      471
   22.465      517
   22.480      560
   22.495      629
   22.510      664
   22.525      642
   22.540      615
   22.555      530
   22.570      484
   22.585      446
   22.600      364
   22.615      311
   22.630      284
   22.645      301
   22.660      283
   22.675      287
   22.690      319
   22.705      314
   22.720      323
   22.735      382
   22.750      413
   22.765      469
   22.780      472
   22.795      383
   22.810      354
   22.825      353
   22.840      392
   22.855      378
   22.870      414
   22.885      401
   22.900      332
   22.915      285
   22.930      267
   22.945      262
   22.960      224
   22.975      210
   22.990      227
   23.005      254
   23.020      249
   23.035      243
   23.050      256
   23.065      273
   23.080      238
   23.095      262
   23.110      240
   23.125      198
   23.140      182
   23.155      186
   23.170      163
   23.185      181
   23.200      178
   23.215      174
   23.230      190
   23.245      182
   23.260      197
   23.275      186
   23.290      202
   23.305      205
   23.320      195
   23.335      202
   23.350      203
   23.365      202
   23.380      183
   23.395      178
   23.410      176
   23.425      180
   23.440      209
   23.455      215
   23.470      190
   23.485      202
   23.500      219
   23.515      212
   23.530      218
   23.545      212
   23.560      214
   23.575      217
   23.590      204
   23.605      239
   23.620      248
   23.635      285
   23.650      279
   23.665      279
   23.680      233
   23.695      223
   23.710      202
   23.725      203
   23.740      183
   23.755      195
   23.770      204
   23.785      190
   23.800      192
   23.815      227
   23.830      247
   23.845      286
   23.860      263
   23.875      281
   23.890      285
   23.905      334
   23.920      373
   23.935      356
   23.950      296
   23.965      264
   23.980      229
   23.995      256
   24.010      263
   24.025      282
   24.040      286
   24.055      312
   24.070      282
   24.085      299
   24.100      316
   24.115      299
   24.130      283
   24.145      242
   24.160      215
   24.175      225
   24.190      239
   24.205      225
   24.220      259
   24.235      246
   24.250      230
   24.265      240
   24.280      240
   24.295      228
   24.310      200
   24.325      213
   24.340      197
   24.355      217
   24.370      214
   24.385      212
   24.400      214
   24.415      190
   24.430      190
   24.445      198
   24.460      202
   24.475      198
   24.490      182
   24.505      200
   24.520      200
   24.535      221
   24.550      245
   24.565      230
   24.580      258
   24.595      273
   24.610      283
   24.625      313
   24.640      324
   24.655      320
   24.670      284
   24.685      260
   24.700      268
   24.715      266
   24.730      269
   24.745      270
   24.760      273
   24.775      271
   24.790      269
   24.805      334
   24.820      363
   24.835      358
   24.850      316
   24.865      307
   24.880      263
   24.895      260
   24.910      208
   24.925      207
   24.940      227
   24.955      234
   24.970      227
   24.985      227
   25.000      251
   25.015      271
   25.030      297
   25.045      290
   25.060      309
   25.075      279
   25.090      277
   25.105      287
   25.120      274
   25.135      303
   25.150      301
   25.165      274
   25.180      301
   25.195      293
   25.210      282
   25.225      299
   25.240      359
   25.255      421
   25.270      448
   25.285      502
   25.300      510
   25.315      468
   25.330      439
   25.345      379
   25.360      310
   25.375      299
   25.390      241
   25.405      236
   25.420      261
   25.435      237
   25.450      229
   25.465      254
   25.480      258
   25.495      283
   25.510      288
   25.525      298
   25.540      312
   25.555      290
   25.570      232
   25.585      215
   25.600      220
   25.615      191
   25.630      210
   25.645      229
   25.660      232
   25.675      208
   25.690      241
   25.705      267
   25.720      262
   25.735      227
   25.750      221
   25.765      265
   25.780      252
   25.795      275
   25.810      285
   25.825      258
   25.840      254
   25.855      227
   25.870      225
   25.885      221
   25.900      222
   25.915      218
   25.930      222
   25.945      204
   25.960      211
   25.975      230
   25.990      214
   26.005      210
   26.020      212
   26.035      203
   26.050      200
   26.065      189
   26.080      182
   26.095      189
   26.110      218
   26.125      213
   26.140      198
   26.155      205
   26.170      187
   26.185      186
   26.200      203
   26.215      205
   26.230      219
   26.245      249
   26.260      289
   26.275      287
   26.290      288
   26.305      282
   26.320      248
   26.335      237
   26.350      226
   26.365      228
   26.380      216
   26.395      200
   26.410      206
   26.425      229
   26.440      233
   26.455      293
   26.470      324
   26.485      362
   26.500      410
   26.515      373
   26.530      352
   26.545      338
   26.560      359
   26.575      357
   26.590      362
   26.605      380
   26.620      318
   26.635      290
   26.650      263
   26.665      240
   26.680      249
   26.695      223
   26.710      208
   26.725      234
   26.740      235
   26.755      205
   26.770      233
   26.785      193
   26.800      208
   26.815      235
   26.830      219
   26.845      236
   26.860      235
   26.875      214
   26.890      202
   26.905      207
   26.920      198
   26.935      196
   26.950      209
   26.965      206
   26.980      211
   26.995      219
   27.010      232
   27.025      232
   27.040      258
   27.055      260
   27.070      256
   27.085      297
   27.100      317
   27.115      307
   27.130      323
   27.145      372
   27.160      354
   27.175      354
   27.190      383
   27.205      391
   27.220      398
   27.235      370
   27.250      375
   27.265      339
   27.280      340
   27.295      355
   27.310      344
   27.325      273
   27.340      273
   27.355      254
   27.370      227
   27.385      246
   27.400      229
   27.415      245
   27.430      266
   27.445      265
   27.460      245
   27.475      269
   27.490      273
   27.505      268
   27.520      253
   27.535      240
   27.550      239
   27.565      224
   27.580      222
   27.595      212
   27.610      230
   27.625      229
   27.640      239
   27.655      231
   27.670      261
   27.685      251
   27.700      276
   27.715      240
   27.730      261
   27.745      252
   27.760      232
   27.775      209
   27.790      224
   27.805      230
   27.820      246
   27.835      253
   27.850      249
   27.865      251
   27.880      226
   27.895      284
   27.910      272
   27.925      240
   27.940      243
   27.955      236
   27.970      231
   27.985      236
   28.000      252
   28.015      230
   28.030      236
   28.045      236
   28.060      223
   28.075      190
   28.090      200
   28.105      220
   28.120      203
   28.135      199
   28.150      176
   28.165      186
   28.180      187
   28.195      190
   28.210      210
   28.225      196
   28.240      206
   28.255      222
   28.270      221
   28.285      220
   28.300      212
   28.315      208
   28.330      218
   28.345      229
   28.360      237
   28.375      246
   28.390      225
   28.405      243
   28.420      246
   28.435      232
   28.450      238
   28.465      252
   28.480      266
   28.495      250
   28.510      258
   28.525      270
   28.540      272
   28.555      257
   28.570      240
   28.585      212
   28.600      241
   28.615      238
   28.630      230
   28.645      218
   28.660      212
   28.675      235
   28.690      219
   28.705      219
   28.720      247
   28.735      217
   28.750      198
   28.765      233
   28.780      220
   28.795      233
   28.810      234
   28.825      242
   28.840      223
   28.855      210
   28.870      210
   28.885      229
   28.900      203
   28.915      196
   28.930      221
   28.945      198
   28.960      204
   28.975      211
   28.990      194
   29.005      214
   29.020      209
   29.035      213
   29.050      218
   29.065      228
   29.080      229
   29.095      233
   29.110      238
   29.125      226
   29.140      238
   29.155      254
   29.170      245
   29.185      276
   29.200      259
   29.215      266
   29.230      297
   29.245      316
   29.260      324
   29.275      322
   29.290      302
   29.305      256
   29.320      241
   29.335      269
   29.350      254
   29.365      245
   29.380      244
   29.395      263
   29.410      255
   29.425      263
   29.440      254
   29.455      214
   29.470      216
   29.485      195
   29.500      208
   29.515      198
   29.530      205
   29.545      200
   29.560      199
   29.575      223
   29.590      217
   29.605      184
   29.620      214
   29.635      216
   29.650      199
   29.665      223
   29.680      202
   29.695      220
   29.710      224
   29.725      200
   29.740      218
   29.755      205
   29.770      199
   29.785      197
   29.800      207
   29.815      193
   29.830      198
   29.845      206
   29.860      216
   29.875      209
   29.890      198
   29.905      183
   29.920      217
   29.935      228
   29.950      215
   29.965      201
   29.980      198
   29.995      193
   30.010      201
   30.025      221
   30.040      248
   30.055      222
   30.070      202
   30.085      222
   30.100      238
   30.115      238
   30.130      236
   30.145      244
   30.160      255
   30.175      253
   30.190      218
   30.205      224
   30.220      243
   30.235      226
   30.250      232
   30.265      218
   30.280      215
   30.295      213
   30.310      212
   30.325      200
   30.340      194
   30.355      182
   30.370      198
   30.385      215
   30.400      211
   30.415      210
   30.430      220
   30.445      218
   30.460      243
   30.475      272
   30.490      252
   30.505      275
   30.520      273
   30.535      246
   30.550      251
   30.565      265
   30.580      247
   30.595      230
   30.610      248
   30.625      274
   30.640      263
   30.655      230
   30.670      223
   30.685      237
   30.700      223
   30.715      206
   30.730      207
   30.745      226
   30.760      224
   30.775      203
   30.790      239
   30.805      222
   30.820      211
   30.835      219
   30.850      224
   30.865      244
   30.880      249
   30.895      231
   30.910      228
   30.925      215
   30.940      228
   30.955      234
   30.970      255
   30.985      234
   31.000      214
   31.015      232
   31.030      195
   31.045      219
   31.060      246
   31.075      225
   31.090      241
   31.105      241
   31.120      245
   31.135      245
   31.150      248
   31.165      254
   31.180      235
   31.195      229
   31.210      239
   31.225      239
   31.240      228
   31.255      244
   31.270      239
   31.285      232
   31.300      244
   31.315      234
   31.330      236
   31.345      249
   31.360      268
   31.375      285
   31.390      292
   31.405      277
   31.420      278
   31.435      256
   31.450      254
   31.465      247
   31.480      262
   31.495      239
   31.510      275
   31.525      251
   31.540      222
   31.555      238
   31.570      230
   31.585      220
   31.600      206
   31.615      229
   31.630      219
   31.645      234
   31.660      213
   31.675      214
   31.690      216
   31.705      206
   31.720      207
   31.735      186
   31.750      209
   31.765      203
   31.780      195
   31.795      184
   31.810      199
   31.825      196
   31.840      208
   31.855      221
   31.870      215
   31.885      188
   31.900      192
   31.915      195
   31.930      210
   31.945      194
   31.960      189
   31.975      206
   31.990      191
   32.005      194
   32.020      215
   32.035      205
   32.050      186
   32.065      188
   32.080      193
   32.095      196
   32.110      195
   32.125      190
   32.140      185
   32.155      214
   32.170      211
   32.185      203
   32.200      215
   32.215      215
   32.230      209
   32.245      197
   32.260      204
   32.275      206
   32.290      206
   32.305      230
   32.320      225
   32.335      225
   32.350      196
   32.365      196
   32.380      224
   32.395      233
   32.410      241
   32.425      265
   32.440      282
   32.455      294
   32.470      290
   32.485      294
   32.500      296
   32.515      314
   32.530      316
   32.545      320
   32.560      259
   32.575      265
   32.590      224
   32.605      213
   32.620      221
   32.635      232
   32.650      227
   32.665      246
   32.680      240
   32.695      215
   32.710      218
   32.725      232
   32.740      197
   32.755      197
   32.770      200
   32.785      184
   32.800      202
   32.815      188
   32.830      200
   32.845      185
   32.860      216
   32.875      206
   32.890      195
   32.905      206
   32.920      217
   32.935      243
   32.950      265
   32.965      241
   32.980      254
   32.995      250
   33.010      264
   33.025      267
   33.040      271
   33.055      294
   33.070      239
   33.085      232
   33.100      228
   33.115      252
   33.130      253
   33.145      236
   33.160      231
   33.175      222
   33.190      232
   33.205      218
   33.220      213
   33.235      213
   33.250      248
   33.265      262
   33.280      254
   33.295      270
   33.310      277
   33.325      277
   33.340      285
   33.355      283
   33.370      263
   33.385      250
   33.400      229
   33.415      228
   33.430      235
   33.445      268
   33.460      238
   33.475      226
   33.490      235
   33.505      253
   33.520      251
   33.535      236
   33.550      230
   33.565      231
   33.580      227
   33.595      217
   33.610      229
   33.625      214
   33.640      218
   33.655      226
   33.670      215
   33.685      211
   33.700      214
   33.715      193
   33.730      196
   33.745      178
   33.760      189
   33.775      203
   33.790      217
   33.805      182
   33.820      183
   33.835      191
   33.850      209
   33.865      198
   33.880      209
   33.895      199
   33.910      214
   33.925      186
   33.940      196
   33.955      212
   33.970      230
   33.985      214
   34.000      210
   34.015      239
   34.030      237
   34.045      218
   34.060      203
   34.075      192
   34.090      215
   34.105      195
   34.120      197
   34.135      182
   34.150      174
   34.165      178
   34.180      180
   34.195      177
   34.210      183
   34.225      217
   34.240      199
   34.255      211
   34.270      213
   34.285      246
   34.300      226
   34.315      215
   34.330      194
   34.345      201
   34.360      218
   34.375      217
   34.390      192
   34.405      197
   34.420      192
   34.435      208
   34.450      196
   34.465      209
   34.480      185
   34.495      207
   34.510      191
   34.525      185
   34.540      213
   34.555      195
   34.570      199
   34.585      209
   34.600      202
   34.615      221
   34.630      208
   34.645      209
   34.660      212
   34.675      210
   34.690      269
   34.705      273
   34.720      271
   34.735      278
   34.750      263
   34.765      276
   34.780      266
   34.795      252
   34.810      275
   34.825      277
   34.840      265
   34.855      288
   34.870      297
   34.885      320
   34.900      293
   34.915      313
   34.930      313
   34.945      310
   34.960      299
   34.975      308
   34.990      318
   35.005      304
   35.020      314
   35.035      339
   35.050      340
   35.065      355
   35.080      327
   35.095      303
   35.110      267
   35.125      250
   35.140      222
   35.155      212
   35.170      234
   35.185      221
   35.200      226
   35.215      205
   35.230      195
   35.245      188
   35.260      196
   35.275      190
   35.290      182
   35.305      187
   35.320      160
   35.335      179
   35.350      165
   35.365      196
   35.380      194
   35.395      198
   35.410      190
   35.425      191
   35.440      187
   35.455      177
   35.470      177
   35.485      175
   35.500      179
   35.515      178
   35.530      181
   35.545      198
   35.560      192
   35.575      195
   35.590      199
   35.605      204
   35.620      207
   35.635      194
   35.650      198
   35.665      186
   35.680      159
   35.695      169
   35.710      187
   35.725      201
   35.740      215
   35.755      195
   35.770      188
   35.785      237
   35.800      236
   35.815      260
   35.830      236
   35.845      219
   35.860      204
   35.875      200
   35.890      212
   35.905      181
   35.920      191
   35.935      180
   35.950      183
   35.965      195
   35.980      190
   35.995      217
   36.010      207
   36.025      166
   36.040      175
   36.055      191
   36.070      174
   36.085      174
   36.100      179
   36.115      194
   36.130      197
   36.145      211
   36.160      195
   36.175      189
   36.190      189
   36.205      197
   36.220      197
   36.235      201
   36.250      188
   36.265      189
   36.280      199
   36.295      181
   36.310      184
   36.325      186
   36.340      176
   36.355      192
   36.370      186
   36.385      155
   36.400      169
   36.415      183
   36.430      178
   36.445      197
   36.460      190
   36.475      200
   36.490      188
   36.505      183
   36.520      202
   36.535      202
   36.550      194
   36.565      204
   36.580      209
   36.595      185
   36.610      201
   36.625      216
   36.640      212
   36.655      215
   36.670      198
   36.685      207
   36.700      198
   36.715      205
   36.730      213
   36.745      224
   36.760      219
   36.775      214
   36.790      201
   36.805      185
   36.820      166
   36.835      181
   36.850      182
   36.865      174
   36.880      173
   36.895      165
   36.910      165
   36.925      159
   36.940      161
   36.955      171
   36.970      183
   36.985      164
   37.000      174
   37.015      167
   37.030      189
   37.045      165
   37.060      178
   37.075      173
   37.090      173
   37.105      161
   37.120      164
   37.135      163
   37.150      170
   37.165      166
   37.180      146
   37.195      150
   37.210      170
   37.225      182
   37.240      186
   37.255      184
   37.270      194
   37.285      161
   37.300      164
   37.315      160
   37.330      166
   37.345      161
   37.360      164
   37.375      179
   37.390      184
   37.405      186
   37.420      197
   37.435      178
   37.450      211
   37.465      204
   37.480      213
   37.495      223
   37.510      223
   37.525      197
   37.540      190
   37.555      184
   37.570      190
   37.585      179
   37.600      160
   37.615      167
   37.630      180
   37.645      191
   37.660      188
   37.675      174
   37.690      159
   37.705      178
   37.720      180
   37.735      172
   37.750      182
   37.765      200
   37.780      212
   37.795      198
   37.810      210
   37.825      220
   37.840      202
   37.855      206
   37.870      197
   37.885      179
   37.900      170
   37.915      155
   37.930      174
   37.945      178
   37.960      161
   37.975      166
   37.990      161
   38.005      163
   38.020      177
   38.035      166
   38.050      176
   38.065      171
   38.080      184
   38.095      205
   38.110      190
   38.125      200
   38.140      184
   38.155      180
   38.170      195
   38.185      197
   38.200      174
   38.215      160
   38.230      163
   38.245      173
   38.260      183
   38.275      190
   38.290      179
   38.305      157
   38.320      171
   38.335      173
   38.350      165
   38.365      171
   38.380      167
   38.395      187
   38.410      180
   38.425      177
   38.440      175
   38.455      178
   38.470      185
   38.485      175
   38.500      161
   38.515      162
   38.530      180
   38.545      186
   38.560      174
   38.575      170
   38.590      162
   38.605      163
   38.620      181
   38.635      152
   38.650      159
   38.665      173
   38.680      164
   38.695      182
   38.710      183
   38.725      182
   38.740      160
   38.755      165
   38.770      176
   38.785      154
   38.800      137
   38.815      155
   38.830      168
   38.845      147
   38.860      150
   38.875      121
   38.890      153
   38.905      138
   38.920      158
   38.935      148
   38.950      140
   38.965      159
   38.980      138
   38.995      165
   39.010      175
   39.025      159
   39.040      134
   39.055      171
   39.070      157
   39.085      153
   39.100      165
   39.115      153
   39.130      152
   39.145      164
   39.160      174
   39.175      184
   39.190      174
   39.205      191
   39.220      176
   39.235      189
   39.250      177
   39.265      178
   39.280      172
   39.295      183
   39.310      167
   39.325      155
   39.340      162
   39.355      175
   39.370      164
   39.385      145
   39.400      152
   39.415      143
   39.430      149
   39.445      133
   39.460      142
   39.475      156
   39.490      144
   39.505      162
   39.520      162
   39.535      158
   39.550      162
   39.565      175
   39.580      169
   39.595      160
   39.610      142
   39.625      156
   39.640      175
   39.655      151
   39.670      145
   39.685      143
   39.700      132
   39.715      144
   39.730      164
   39.745      159
   39.760      157
   39.775      164
   39.790      167
   39.805      156
   39.820      161
   39.835      169
   39.850      150
   39.865      158
   39.880      182
   39.895      208
   39.910      186
   39.925      181
   39.940      197
   39.955      157
   39.970      167
   39.985      182
   40.000      156
   40.015      152
   40.030      173
   40.045      167
   40.060      141
   40.075      151
   40.090      161
   40.105      167
   40.120      168
   40.135      179
   40.150      181
   40.165      169
   40.180      153
   40.195      177
   40.210      173
   40.225      147
   40.240      169
   40.255      165
   40.270      175
   40.285      172
   40.300      160
   40.315      135
   40.330      147
   40.345      167
   40.360      147
   40.375      154
   40.390      162
   40.405      158
   40.420      154
   40.435      180
   40.450      162
   40.465      162
   40.480      163
   40.495      162
   40.510      159
   40.525      133
   40.540      142
   40.555      145
   40.570      129
   40.585      145
   40.600      143
   40.615      145
   40.630      156
   40.645      142
   40.660      148
   40.675      145
   40.690      137
   40.705      155
   40.720      139
   40.735      152
   40.750      144
   40.765      143
   40.780      159
   40.795      161
   40.810      152
   40.825      161
   40.840      161
   40.855      142
   40.870      167
   40.885      149
   40.900      136
   40.915      149
   40.930      149
   40.945      144
   40.960      138
   40.975      149
   40.990      136
   41.005      147
   41.020      143
   41.035      144
   41.050      138
   41.065      145
   41.080      139
   41.095      137
   41.110      148
   41.125      146
   41.140      143
   41.155      145
   41.170      162
   41.185      143
   41.200      136
   41.215      169
   41.230      146
   41.245      152
   41.260      173
   41.275      156
   41.290      160
   41.305      167
   41.320      140
   41.335      153
   41.350      157
   41.365      147
   41.380      142
   41.395      140
   41.410      157
   41.425      168
   41.440      166
   41.455      154
   41.470      159
   41.485      179
   41.500      153
   41.515      167
   41.530      147
   41.545      154
   41.560      161
   41.575      173
   41.590      151
   41.605      157
   41.620      147
   41.635      159
   41.650      159
   41.665      159
   41.680      150
   41.695      161
   41.710      175
   41.725      140
   41.740      129
   41.755      151
   41.770      179
   41.785      165
   41.800      158
   41.815      135
   41.830      152
   41.845      155
   41.860      135
   41.875      153
   41.890      154
   41.905      131
   41.920      143
   41.935      141
   41.950      162
   41.965      174
   41.980      150
   41.995      156
   42.010      134
   42.025      147
   42.040      137
   42.055      155
   42.070      158
   42.085      156
   42.100      142
   42.115      148
   42.130      155
   42.145      170
   42.160      150
   42.175      160
   42.190      156
   42.205      161
   42.220      162
   42.235      166
   42.250      156
   42.265      161
   42.280      132
   42.295      139
   42.310      153
   42.325      152
   42.340      161
   42.355      156
   42.370      163
   42.385      160
   42.400      156
   42.415      187
   42.430      169
   42.445      149
   42.460      151
   42.475      152
   42.490      149
   42.505      154
   42.520      144
   42.535      138
   42.550      138
   42.565      128
   42.580      142
   42.595      168
   42.610      139
   42.625      143
   42.640      138
   42.655      133
   42.670      142
   42.685      150
   42.700      143
   42.715      146
   42.730      170
   42.745      153
   42.760      143
   42.775      129
   42.790      149
   42.805      140
   42.820      135
   42.835      157
   42.850      134
   42.865      148
   42.880      139
   42.895      142
   42.910      157
   42.925      127
   42.940      148
   42.955      138
   42.970      158
   42.985      155
   43.000      142
   43.015      146
   43.030      145
   43.045      139
   43.060      168
   43.075      159
   43.090      143
   43.105      134
   43.120      142
   43.135      130
   43.150      137
   43.165      142
   43.180      145
   43.195      141
   43.210      149
   43.225      136
   43.240      143
   43.255      139
   43.270      139
   43.285      150
   43.300      122
   43.315      148
   43.330      160
   43.345      157
   43.360      162
   43.375      137
   43.390      139
   43.405      160
   43.420      149
   43.435      149
   43.450      137
   43.465      148
   43.480      135
   43.495      154
   43.510      155
   43.525      156
   43.540      142
   43.555      142
   43.570      145
   43.585      148
   43.600      135
   43.615      139
   43.630      144
   43.645      159
   43.660      137
   43.675      136
   43.690      137
   43.705      146
   43.720      145
   43.735      146
   43.750      133
   43.765      132
   43.780      161
   43.795      146
   43.810      162
   43.825      160
   43.840      144
   43.855      152
   43.870      142
   43.885      142
   43.900      132
   43.915      146
   43.930      146
   43.945      142
   43.960      142
   43.975      147
   43.990      146
   44.005      142
   44.020      147
   44.035      143
   44.050      152
   44.065      137
   44.080      162
   44.095      156
   44.110      152
   44.125      147
   44.140      135
   44.155      134
   44.170      138
   44.185      144
   44.200      144
   44.215      160
   44.230      163
   44.245      170
   44.260      159
   44.275      164
   44.290      172
   44.305      175
   44.320      188
   44.335      161
   44.350      160
   44.365      165
   44.380      161
   44.395      150
   44.410      178
   44.425      158
   44.440      173
   44.455      189
   44.470      171
   44.485      147
   44.500      148
   44.515      156
   44.530      153
   44.545      144
   44.560      177
   44.575      148
   44.590      153
   44.605      161
   44.620      154
   44.635      165
   44.650      142
   44.665      145
   44.680      168
   44.695      152
   44.710      144
   44.725      153
   44.740      167
   44.755      149
   44.770      139
   44.785      136
   44.800      163
   44.815      160
   44.830      135
   44.845      129
   44.860      147
   44.875      134
   44.890      145
   44.905      138
   44.920      138
   44.935      153
   44.950      157
   44.965      142
   44.980      139
   44.995      160
   45.010      152
   45.025      134
   45.040      155
   45.055      151
   45.070      154
   45.085      135
   45.100      144
   45.115      151
   45.130      125
   45.145      121
   45.160      139
   45.175      125
   45.190      119
   45.205      123
   45.220      130
   45.235      125
   45.250      122
   45.265      145
   45.280      144
   45.295      135
   45.310      110
   45.325      141
   45.340      145
   45.355      134
   45.370      125
   45.385      131
   45.400      135
   45.415      135
   45.430      146
   45.445      135
   45.460      128
   45.475      147
   45.490      143
   45.505      146
   45.520      144
   45.535      142
   45.550      146
   45.565      157
   45.580      138
   45.595      134
   45.610      146
   45.625      142
   45.640      154
   45.655      133
   45.670      139
   45.685      119
   45.700      139
   45.715      139
   45.730      145
   45.745      131
   45.760      130
   45.775      156
   45.790      140
   45.805      143
   45.820      117
   45.835      139
   45.850      141
   45.865      144
   45.880      156
   45.895      153
   45.910      135
   45.925      136
   45.940      128
   45.955      126
   45.970      138
   45.985      140
