    4.000      192
    4.015      205
    4.030      187
    4.045      176
    4.060      184
    4.075      187
    4.090      209
    4.105      213
    4.120      199
    4.135      208
    4.150      196
    4.165      203
    4.180      204
    4.195      181
    4.210      195
    4.225      178
    4.240      206
    4.255      197
    4.270      186
    4.285      205
    4.300      198
    4.315      167
    4.330      167
    4.345      179
    4.360      179
    4.375      170
    4.390      178
    4.405      216
    4.420      203
    4.435      199
    4.450      170
    4.465      188
    4.480      191
    4.495      196
    4.510      194
    4.525      193
    4.540      161
    4.555      201
    4.570      197
    4.585      186
    4.600      172
    4.615      170
    4.630      168
    4.645      177
    4.660      187
    4.675      204
    4.690      202
    4.705      203
    4.720      203
    4.735      187
    4.750      219
    4.765      201
    4.780      183
    4.795      196
    4.810      185
    4.825      181
    4.840      199
    4.855      189
    4.870      190
    4.885      200
    4.900      184
    4.915      179
    4.930      185
    4.945      178
    4.960      180
    4.975      175
    4.990      177
    5.005      193
    5.020      169
    5.035      178
    5.050      173
    5.065      194
    5.080      195
    5.095      179
    5.110      201
    5.125      193
    5.140      186
    5.155      186
    5.170      200
    5.185      195
    5.200      202
    5.215      185
    5.230      185
    5.245      189
    5.260      181
    5.275      180
    5.290      189
    5.305      177
    5.320      179
    5.335      184
    5.350      176
    5.365      182
    5.380      178
    5.395      174
    5.410      173
    5.425      167
    5.440      176
    5.455      173
    5.470      166
    5.485      183
    5.500      163
    5.515      175
    5.530      194
    5.545      171
    5.560      162
    5.575      189
    5.590      177
    5.605      182
    5.620      176
    5.635      185
    5.650      172
    5.665      175
    5.680      187
    5.695      182
    5.710      166
    5.725      174
    5.740      168
    5.755      164
    5.770      195
    5.785      172
    5.800      186
    5.815      191
    5.830      178
    5.845      200
    5.860      208
    5.875      189
    5.890      184
    5.905      198
    5.920      178
    5.935      169
    5.950      180
    5.965      178
    5.980      186
    5.995      217
    6.010      182
    6.025      166
    6.040      172
    6.055      186
    6.070      170
    6.085      183
    6.100      184
    6.115      194
    6.130      196
    6.145      193
    6.160      172
    6.175      181
    6.190      196
    6.205      200
    6.220      200
    6.235      198
    6.250      203
    6.265      214
    6.280      199
    6.295      189
    6.310      209
    6.325      223
    6.340      232
    6.355      224
    6.370      243
    6.385      251
    6.400      249
    6.415      260
    6.430      285
    6.445      300
    6.460      334
    6.475      338
    6.490      355
    6.505      403
    6.520      430
    6.535      430
    6.550      457
    6.565      410
    6.580      399
    6.595      376
    6.610      273
    6.625      205
    6.640      204
    6.655      198
    6.670      169
    6.685      185
    6.700      174
    6.715      181
    6.730      175
    6.745      178
    6.760      149
    6.775      170
    6.790      191
    6.805      191
    6.820      178
    6.835      172
    6.850      196
    6.865      184
    6.880      176
    6.895      179
    6.910      188
    6.925      194
    6.940      188
    6.955      215
    6.970      191
    6.985      213
    7.000      231
    7.015      210
    7.030      211
    7.045      217
    7.060      251
    7.075      248
    7.090      270
    7.105      269
    7.120      234
    7.135      221
    7.150      181
    7.165      161
    7.180      160
    7.195      177
    7.210      162
    7.225      169
    7.240      175
    7.255      187
    7.270      180
    7.285      169
    7.300      169
    7.315      168
    7.330      154
    7.345      186
    7.360      202
    7.375      180
    7.390      175
    7.405      209
    7.420      172
    7.435      145
    7.450      188
    7.465      225
    7.480      199
    7.495      189
    7.510      199
    7.525      216
    7.540      234
    7.555      241
    7.570      238
    7.585      237
    7.600      216
    7.615      200
    7.630      173
    7.645      179
    7.660      170
    7.675      170
    7.690      163
    7.705      168
    7.720      167
    7.735      180
    7.750      181
    7.765      179
    7.780      169
    7.795      174
    7.810      163
    7.825      167
    7.840      181
    7.855      174
    7.870      175
    7.885      169
    7.900      154
    7.915      161
    7.930      162
    7.945      171
    7.960      172
    7.975      186
    7.990      184
    8.005      178
    8.020      174
    8.035      169
    8.050      172
    8.065      169
    8.080      173
    8.095      171
    8.110      181
    8.125      173
    8.140      167
    8.155      176
    8.170      177
    8.185      167
    8.200      161
    8.215      165
    8.230      169
    8.245      170
    8.260      164
    8.275      163
    8.290      148
    8.305      163
    8.320      181
    8.335      163
    8.350      181
    8.365      184
    8.380      164
    8.395      154
    8.410      181
    8.425      172
    8.440      173
    8.455      182
    8.470      167
    8.485      198
    8.500      173
    8.515      189
    8.530      182
    8.545      177
    8.560      193
    8.575      185
    8.590      168
    8.605      167
    8.620      172
    8.635      182
    8.650      199
    8.665      192
    8.680      182
    8.695      182
    8.710      177
    8.725      170
    8.740      154
    8.755      168
    8.770      158
    8.785      162
    8.800      183
    8.815      182
    8.830      180
    8.845      189
    8.860      192
    8.875      175
    8.890      192
    8.905      191
    8.920      161
    8.935      202
    8.950      184
    8.965      191
    8.980      171
    8.995      173
    9.010      192
    9.025      200
    9.040      185
    9.055      190
    9.070      193
    9.085      174
    9.100      197
    9.115      178
    9.130      167
    9.145      197
    9.160      207
    9.175      188
    9.190      202
    9.205      190
    9.220      205
    9.235      190
    9.250      198
    9.265      166
    9.280      191
    9.295      209
    9.310      190
    9.325      191
    9.340      180
    9.355      183
    9.370      183
    9.385      202
    9.400      181
    9.415      180
    9.430      170
    9.445      187
    9.460      185
    9.475      204
    9.490      166
    9.505      166
    9.520      211
    9.535      181
    9.550      191
    9.565      190
    9.580      194
    9.595      195
    9.610      207
    9.625      194
    9.640      206
    9.655      199
    9.670      235
    9.685      252
    9.700      232
    9.715      227
    9.730      228
    9.745      185
    9.760      198
    9.775      182
    9.790      180
    9.805      189
    9.820      183
    9.835      178
    9.850      187
    9.865      172
    9.880      187
    9.895      184
    9.910      207
    9.925      213
    9.940      188
    9.955      186
    9.970      181
    9.985      201
   10.000      193
   10.015      183
   10.030      169
   10.045      188
   10.060      181
   10.075      185
   10.090      201
   10.105      198
   10.120      203
   10.135      228
   10.150      213
   10.165      198
   10.180      218
   10.195      225
   10.210      221
   10.225      244
   10.240      267
   10.255      261
   10.270      269
   10.285      297
   10.300      292
   10.315      321
   10.330      357
   10.345      380
   10.360      325
   10.375      272
   10.390      215
   10.405      216
   10.420      220
   10.435      185
   10.450      200
   10.465      196
   10.480      179
   10.495      191
   10.510      180
   10.525      167
   10.540      215
   10.555      201
   10.570      209
   10.585      203
   10.600      205
   10.615      218
   10.630      210
   10.645      209
   10.660      216
   10.675      211
   10.690      216
   10.705      238
   10.720      258
   10.735      257
   10.750      225
   10.765      224
   10.780      219
   10.795      205
   10.810      196
   10.825      191
   10.840      177
   10.855      189
   10.870      200
   10.885      198
   10.900      199
   10.915      199
   10.930      201
   10.945      211
   10.960      212
   10.975      206
   10.990      227
   11.005      227
   11.020      254
   11.035      252
   11.050      265
   11.065      310
   11.080      346
   11.095      384
   11.110      355
   11.125      293
   11.140      236
   11.155      214
   11.170      206
   11.185      207
   11.200      196
   11.215      208
   11.230      229
   11.245      237
   11.260      250
   11.275      246
   11.290      250
   11.305      241
   11.320      216
   11.335      182
   11.350      194
   11.365      179
   11.380      179
   11.395      175
   11.410      178
   11.425      177
   11.440      179
   11.455      168
   11.470      173
   11.485      178
   11.500      200
   11.515      180
   11.530      168
   11.545      191
   11.560      197
   11.575      182
   11.590      204
   11.605      207
   11.620      193
   11.635      212
   11.650      219
   11.665      212
   11.680      213
   11.695      232
   11.710      252
   11.725      279
   11.740      297
   11.755      269
   11.770      241
   11.785      202
   11.800      199
   11.815      196
   11.830      228
   11.845      190
   11.860      231
   11.875      239
   11.890      247
   11.905      274
   11.920      252
   11.935      224
   11.950      196
   11.965      194
   11.980      161
   11.995      158
   12.010      194
   12.025      214
   12.040      195
   12.055      196
   12.070      182
   12.085      189
   12.100      169
   12.115      197
   12.130      207
   12.145      217
   12.160      195
   12.175      176
   12.190      184
   12.205      195
   12.220      191
   12.235      216
   12.250      218
   12.265      201
   12.280      221
   12.295      238
   12.310      254
   12.325      283
   12.340      302
   12.355      362
   12.370      412
   12.385      462
   12.400      542
   12.415      635
   12.430      774
   12.445      913
   12.460     1057
   12.475     1290
   12.490     1572
   12.505     1903
   12.520     1980
   12.535     1704
   12.550     1352
   12.565     1253
   12.580     1277
   12.595     1335
   12.610     1268
   12.625     1044
   12.640      715
   12.655      483
   12.670      315
   12.685      286
   12.700      253
   12.715      242
   12.730      250
   12.745      244
   12.760      249
   12.775      294
   12.790      316
   12.805      339
   12.820      322
   12.835      388
   12.850      438
   12.865      529
   12.880      577
   12.895      681
   12.910      622
   12.925      547
   12.940      546
   12.955      558
   12.970      564
   12.985      670
   13.000      833
   13.015     1000
   13.030     1265
   13.045     1571
   13.060     1913
   13.075     2192
   13.090     2175
   13.105     1797
   13.120     1654
   13.135     1773
   13.150     1978
   13.165     2437
   13.180     3199
   13.195     3664
   13.210     3186
   13.225     2083
   13.240     1136
   13.255      699
   13.270      468
   13.285      382
   13.300      399
   13.315      401
   13.330      419
   13.345      488
   13.360      503
   13.375      538
   13.390      627
   13.405      748
   13.420      791
   13.435      791
   13.450      902
   13.465      896
   13.480      737
   13.495      569
   13.510      340
   13.525      276
   13.540      266
   13.555      247
   13.570      276
   13.585      270
   13.600      289
   13.615      300
   13.630      312
   13.645      336
   13.660      368
   13.675      428
   13.690      497
   13.705      446
   13.720      384
   13.735      346
   13.750      238
   13.765      193
   13.780      202
   13.795      184
   13.810      190
   13.825      211
   13.840      194
   13.855      188
   13.870      187
   13.885      205
   13.900      191
   13.915      180
   13.930      190
   13.945      179
   13.960      204
   13.975      201
   13.990      202
   14.005      198
   14.020      187
   14.035      250
   14.050      287
   14.065      297
   14.080      298
   14.095      305
   14.110      355
   14.125      400
   14.140      488
   14.155      520
   14.170      487
   14.185      428
   14.200      415
   14.215      441
   14.230      495
   14.245      518
   14.260      494
   14.275      511
   14.290      568
   14.305      659
   14.320      707
   14.335      834
   14.350      988
   14.365      922
   14.380      709
   14.395      495
   14.410      319
   14.425      234
   14.440      234
   14.455      215
   14.470      186
   14.485      208
   14.500      205
   14.515      183
   14.530      186
   14.545      189
   14.560      184
   14.575      182
   14.590      200
   14.605      191
   14.620      177
   14.635      171
   14.650      177
   14.665      197
   14.680      200
   14.695      215
   14.710      243
   14.725      278
   14.740      290
   14.755      305
   14.770      344
   14.785      373
   14.800      435
   14.815      515
   14.830      630
   14.845      687
   14.860      821
   14.875      996
   14.890     1049
   14.905     1185
   14.920     1466
   14.935     1678
   14.950     1738
   14.965     1248
   14.980      766
   14.995      524
   15.010      407
   15.025      351
   15.040      341
   15.055      337
   15.070      359
   15.085      372
   15.100      423
   15.115      442
   15.130      502
   15.145      559
   15.160      606
   15.175      587
   15.190      515
   15.205      441
   15.220      417
   15.235      430
   15.250      383
   15.265      347
   15.280      298
   15.295      289
   15.310      301
   15.325      327
   15.340      332
   15.355      357
   15.370      411
   15.385      454
   15.400      566
   15.415      642
   15.430      706
   15.445      700
   15.460      569
   15.475      445
   15.490      349
   15.505      312
   15.520      338
   15.535      366
   15.550      385
   15.565      428
   15.580      477
   15.595      539
   15.610      649
   15.625      664
   15.640      635
   15.655      536
   15.670      402
   15.685      321
   15.700      266
   15.715      267
   15.730      222
   15.745      223
   15.760      260
   15.775      265
   15.790      284
   15.805      255
   15.820      310
   15.835      318
   15.850      341
   15.865      397
   15.880      432
   15.895      506
   15.910      623
   15.925      734
   15.940      815
   15.955      871
   15.970      807
   15.985      767
   16.000      562
   16.015      420
   16.030      348
   16.045      316
   16.060      341
   16.075      337
   16.090      383
   16.105      476
   16.120      536
   16.135      613
   16.150      608
   16.165      588
   16.180      578
   16.195      608
   16.210      708
   16.225      818
   16.240      963
   16.255     1189
   16.270     1158
   16.285      970
   16.300      813
   16.315      655
   16.330      624
   16.345      722
   16.360      864
   16.375     1007
   16.390     1057
   16.405      921
   16.420      832
   16.435      697
   16.450      712
   16.465      719
   16.480      729
   16.495      862
   16.510     1062
   16.525     1240
   16.540     1178
   16.555     1019
   16.570      874
   16.585      898
   16.600      912
   16.615      911
   16.630      868
   16.645      865
   16.660      706
   16.675      520
   16.690      369
   16.705      337
   16.720      320
   16.735      309
   16.750      326
   16.765      336
   16.780      359
   16.795      407
   16.810      477
   16.825      512
   16.840      624
   16.855      658
   16.870      615
   16.885      458
   16.900      332
   16.915      307
   16.930      299
   16.945      302
   16.960      328
   16.975      329
   16.990      366
   17.005      395
   17.020      422
   17.035      461
   17.050      493
   17.065      476
   17.080      428
   17.095      378
   17.110      348
   17.125      332
   17.140      352
   17.155      351
   17.170      335
   17.185      313
   17.200      326
   17.215      335
   17.230      350
   17.245      386
   17.260      468
   17.275      540
   17.290      598
   17.305      613
   17.320      509
   17.335      372
   17.350      264
   17.365      224
   17.380      234
   17.395      229
   17.410      235
   17.425      237
   17.440      241
   17.455      278
   17.470      314
   17.485      323
   17.500      326
   17.515      311
   17.530      309
   17.545      350
   17.560      368
   17.575      391
   17.590      359
   17.605      330
   17.620      235
   17.635      224
   17.650      216
   17.665      237
   17.680      200
   17.695      203
   17.710      197
   17.725      198
   17.740      202
   17.755      201
   17.770      150
   17.785      161
   17.800      169
   17.815      170
   17.830      200
   17.845      188
   17.860      170
   17.875      183
   17.890      171
   17.905      169
   17.920      172
   17.935      188
   17.950      194
   17.965      202
   17.980      234
   17.995      238
   18.010      275
   18.025      309
   18.040      262
   18.055      307
   18.070      351
   18.085      356
   18.100      394
   18.115      424
   18.130      402
   18.145      315
   18.160      244
   18.175      185
   18.190      204
   18.205      197
   18.220      199
   18.235      246
   18.250      226
   18.265      226
   18.280      232
   18.295      255
   18.310      283
   18.325      311
   18.340      386
   18.355      493
   18.370      574
   18.385      555
   18.400      533
   18.415      514
   18.430      516
   18.445      555
   18.460      638
   18.475      722
   18.490      716
   18.505      654
   18.520      606
   18.535      532
   18.550      440
   18.565      382
   18.580      311
   18.595      338
   18.610      368
   18.625      388
   18.640      403
   18.655      433
   18.670      437
   18.685      530
   18.700      564
   18.715      486
   18.730      427
   18.745      373
   18.760      380
   18.775      358
   18.790      329
   18.805      304
   18.820      245
   18.835      215
   18.850      205
   18.865      194
   18.880      179
   18.895      172
   18.910      187
   18.925      184
   18.940      189
   18.955      163
   18.970      197
   18.985      175
   19.000      193
   19.015      177
   19.030      160
   19.045      176
   19.060      170
   19.075      173
   19.090      167
   19.105      173
   19.120      154
   19.135      169
   19.150      178
   19.165      170
   19.180      167
   19.195      162
   19.210      175
   19.225      178
   19.240      202
   19.255      181
   19.270      185
   19.285      227
   19.300      198
   19.315      232
   19.330      265
   19.345      291
   19.360      327
   19.375      368
   19.390      389
   19.405      433
   19.420      454
   19.435      421
   19.450      398
   19.465      357
   19.480      293
   19.495      275
   19.510      251
   19.525      234
   19.540      268
   19.555      298
   19.570      355
   19.585      408
   19.600      482
   19.615      566
   19.630      647
   19.645      806
   19.660      939
   19.675     1057
   19.690     1139
   19.705      989
   19.720      812
   19.735      684
   19.750      598
   19.765      659
   19.780      772
   19.795      777
   19.810      770
   19.825      695
   19.840      645
   19.855      540
   19.870      445
   19.885      364
   19.900      310
   19.915      275
   19.930      278
   19.945      275
   19.960      267
   19.975      305
   19.990      322
   20.005      343
   20.020      333
   20.035      285
   20.050      235
   20.065      222
   20.080      194
   20.095      159
   20.110      158
   20.125      170
   20.140      177
   20.155      176
   20.170      172
   20.185      174
   20.200      175
   20.215      178
   20.230      168
   20.245      176
   20.260      175
   20.275      164
   20.290      176
   20.305      198
   20.320      182
   20.335      187
   20.350      206
   20.365      207
   20.380      202
   20.395      207
   20.410      199
   20.425      206
   20.440      221
   20.455      226
   20.470      267
   20.485      289
   20.500      341
   20.515      356
   20.530      423
   20.545      456
   20.560      432
   20.575      419
   20.590      396
   20.605      381
   20.620      429
   20.635      433
   20.650      468
   20.665      381
   20.680      321
   20.695      278
   20.710      230
   20.725      249
   20.740      229
   20.755      236
   20.770      245
   20.785      250
   20.800      238
   20.815      218
   20.830      225
   20.845      210
   20.860      223
   20.875      204
   20.890      215
   20.905      234
   20.920      219
   20.935      203
   20.950      209
   20.965      220
   20.980      227
   20.995      241
   21.010      240
   21.025      265
   21.040      251
   21.055      227
   21.070      173
   21.085      179
   21.100      189
   21.115      180
   21.130      163
   21.145      177
   21.160      172
   21.175      171
   21.190      177
   21.205      158
   21.220      194
   21.235      235
   21.250      251
   21.265      266
   21.280      292
   21.295      347
   21.310      418
   21.325      523
   21.340      600
   21.355      664
   21.370      649
   21.385      608
   21.400      554
   21.415      463
   21.430      473
   21.445      524
   21.460      569
   21.475      672
   21.490      811
   21.505      940
   21.520     1210
   21.535     1493
   21.550     1738
   21.565     1589
   21.580     1246
   21.595      928
   21.610      671
   21.625      566
   21.640      493
   21.655      489
   21.670      462
   21.685      407
   21.700      373
   21.715      322
   21.730      272
   21.745      233
   21.760      234
   21.775      208
   21.790      193
   21.805      191
   21.820      188
   21.835      170
   21.850      188
   21.865      187
   21.880      205
   21.895      212
   21.910      203
   21.925      209
   21.940      232
   21.955      217
   21.970      211
   21.985      226
   22.000      223
   22.015      243
   22.030      233
   22.045      238
   22.060      249
   22.075      268
   22.090      253
   22.105      284
   22.120      344
   22.135      355
   22.150      389
   22.165      376
   22.180      314
   22.195      256
   22.210      265
   22.225      242
   22.240      221
   22.255      235
   22.270      285
   22.285      316
   22.300      358
   22.315      396
   22.330      420
   22.345      466
   22.360      498
   22.375      558
   22.390      512
   22.405      421
   22.420      342
   22.435      312
   22.450      329
   22.465      334
   22.480      358
   22.495      410
   22.510      444
   22.525      504
   22.540      613
   22.555      634
   22.570      653
   22.585      658
   22.600      629
   22.615      575
   22.630      535
   22.645      475
   22.660      429
   22.675      361
   22.690      302
   22.705      296
   22.720      297
   22.735      298
   22.750      291
   22.765      330
   22.780      351
   22.795      410
   22.810      407
   22.825      415
   22.840      360
   22.855      315
   22.870      298
   22.885      324
   22.900      330
   22.915      363
   22.930      390
   22.945      366
   22.960      356
   22.975      306
   22.990      257
   23.005      227
   23.020      202
   23.035      195
   23.050      194
   23.065      216
   23.080      247
   23.095      247
   23.110      279
   23.125      297
   23.140      272
   23.155      255
   23.170      237
   23.185      222
   23.200      201
   23.215      193
   23.230      167
   23.245      152
   23.260      158
   23.275      161
   23.290      167
   23.305      171
   23.320      160
   23.335      162
   23.350      184
   23.365      164
   23.380      158
   23.395      163
   23.410      157
   23.425      166
   23.440      159
   23.455      149
   23.470      169
   23.485      175
   23.500      166
   23.515      179
   23.530      194
   23.545      202
   23.560      187
   23.575      192
   23.590      180
   23.605      177
   23.620      207
   23.635      208
   23.650      233
   23.665      237
   23.680      241
   23.695      267
   23.710      290
   23.725      315
   23.740      292
   23.755      244
   23.770      209
   23.785      195
   23.800      185
   23.815      186
   23.830      189
   23.845      204
   23.860      222
   23.875      221
   23.890      227
   23.905      242
   23.920      276
   23.935      331
   23.950      385
   23.965      406
   23.980      374
   23.995      347
   24.010      327
   24.025      265
   24.040      259
   24.055      241
   24.070      219
   24.085      238
   24.100      248
   24.115      262
   24.130      252
   24.145      251
   24.160      267
   24.175      276
   24.190      263
   24.205      247
   24.220      218
   24.235      195
   24.250      197
   24.265      208
   24.280      199
   24.295      217
   24.310      199
   24.325      192
   24.340      208
   24.355      227
   24.370      214
   24.385      200
   24.400      197
   24.415      219
   24.430      196
   24.445      202
   24.460      214
   24.475      188
   24.490      177
   24.505      182
   24.520      168
   24.535      165
   24.550      166
   24.565      181
   24.580      172
   24.595      183
   24.610      198
   24.625      195
   24.640      266
   24.655      307
   24.670      344
   24.685      355
   24.700      331
   24.715      276
   24.730      267
   24.745      267
   24.760      264
   24.775      276
   24.790      280
   24.805      281
   24.820      274
   24.835      244
   24.850      297
   24.865      297
   24.880      323
   24.895      319
   24.910      275
   24.925      262
   24.940      237
   24.955      203
   24.970      164
   24.985      180
   25.000      171
   25.015      188
   25.030      203
   25.045      206
   25.060      226
   25.075      211
   25.090      225
   25.105      254
   25.120      289
   25.135      289
   25.150      265
   25.165      222
   25.180      285
   25.195      256
   25.210      270
   25.225      265
   25.240      262
   25.255      279
   25.270      322
   25.285      350
   25.300      323
   25.315      388
   25.330      446
   25.345      510
   25.360      487
   25.375      527
   25.390      517
   25.405      480
   25.420      392
   25.435      327
   25.450      267
   25.465      244
   25.480      227
   25.495      214
   25.510      246
   25.525      264
   25.540      294
   25.555      316
   25.570      306
   25.585      330
   25.600      306
   25.615      283
   25.630      237
   25.645      230
   25.660      214
   25.675      207
   25.690      217
   25.705      190
   25.720      203
   25.735      218
   25.750      218
   25.765      244
   25.780      261
   25.795      263
   25.810      255
   25.825      266
   25.840      294
   25.855      311
   25.870      299
   25.885      256
   25.900      229
   25.915      209
   25.930      206
   25.945      199
   25.960      190
   25.975      200
   25.990      198
   26.005      204
   26.020      192
   26.035      195
   26.050      212
   26.065      218
   26.080      201
   26.095      181
   26.110      178
   26.125      171
   26.140      165
   26.155      147
   26.170      149
   26.185      155
   26.200      167
   26.215      177
   26.230      182
   26.245      185
   26.260      179
   26.275      185
   26.290      215
   26.305      245
   26.320      278
   26.335      302
   26.350      317
   26.365      271
   26.380      228
   26.395      197
   26.410      190
   26.425      186
   26.440      175
   26.455      170
   26.470      182
   26.485      191
   26.500      231
   26.515      261
   26.530      322
   26.545      314
   26.560      377
   26.575      429
   26.590      459
   26.605      433
   26.620      453
   26.635      450
   26.650      420
   26.665      433
   26.680      371
   26.695      319
   26.710      305
   26.725      265
   26.740      256
   26.755      228
   26.770      205
   26.785      213
   26.800      221
   26.815      225
   26.830      201
   26.845      204
   26.860      208
   26.875      193
   26.890      187
   26.905      202
   26.920      208
   26.935      209
   26.950      207
   26.965      207
   26.980      205
   26.995      198
   27.010      213
   27.025      229
   27.040      222
   27.055      223
   27.070      206
   27.085      235
   27.100      252
   27.115      278
   27.130      249
   27.145      269
   27.160      299
   27.175      320
   27.190      366
   27.205      368
   27.220      383
   27.235      383
   27.250      397
   27.265      409
   27.280      419
   27.295      408
   27.310      391
   27.325      383
   27.340      384
   27.355      349
   27.370      354
   27.385      341
   27.400      322
   27.415      290
   27.430      251
   27.445      226
   27.460      238
   27.475      226
   27.490      218
   27.505      249
   27.520      263
   27.535      279
   27.550      285
   27.565      271
   27.580      268
   27.595      254
   27.610      244
   27.625      238
   27.640      231
   27.655      203
   27.670      207
   27.685      205
   27.700      224
   27.715      209
   27.730      199
   27.745      223
   27.760      235
   27.775      268
   27.790      268
   27.805      264
   27.820      263
   27.835      245
   27.850      222
   27.865      235
   27.880      252
   27.895      240
   27.910      239
   27.925      267
   27.940      248
   27.955      258
   27.970      268
   27.985      251
   28.000      242
   28.015      258
   28.030      246
   28.045      230
   28.060      216
   28.075      237
   28.090      210
   28.105      199
   28.120      197
   28.135      174
   28.150      192
   28.165      190
   28.180      181
   28.195      196
   28.210      184
   28.225      178
   28.240      196
   28.255      168
   28.270      199
   28.285      192
   28.300      200
   28.315      202
   28.330      232
   28.345      232
   28.360      243
   28.375      216
   28.390      227
   28.405      252
   28.420      247
   28.435      218
   28.450      241
   28.465      233
   28.480      217
   28.495      210
   28.510      266
   28.525      267
   28.540      276
   28.555      279
   28.570      262
   28.585      267
   28.600      261
   28.615      285
   28.630      271
   28.645      214
   28.660      207
   28.675      207
   28.690      226
   28.705      253
   28.720      244
   28.735      246
   28.750      228
   28.765      224
   28.780      210
   28.795      228
   28.810      212
   28.825      200
   28.840      210
   28.855      211
   28.870      211
   28.885      228
   28.900      226
   28.915      204
   28.930      221
   28.945      236
   28.960      225
   28.975      196
   28.990      193
   29.005      204
   29.020      188
   29.035      181
   29.050      182
   29.065      191
   29.080      204
   29.095      189
   29.110      191
   29.125      203
   29.140      220
   29.155      224
   29.170      238
   29.185      241
   29.200      221
   29.215      236
   29.230      256
   29.245      260
   29.260      263
   29.275      295
   29.290      334
   29.305      346
   29.320      372
   29.335      348
   29.350      334
   29.365      286
   29.380      273
   29.395      241
   29.410      255
   29.425      248
   29.440      225
   29.455      231
   29.470      237
   29.485      252
   29.500      254
   29.515      244
   29.530      234
   29.545      248
   29.560      220
   29.575      187
   29.590      181
   29.605      178
   29.620      163
   29.635      176
   29.650      182
   29.665      200
   29.680      185
   29.695      188
   29.710      197
   29.725      183
   29.740      196
   29.755      204
   29.770      204
   29.785      195
   29.800      197
   29.815      177
   29.830      188
   29.845      193
   29.860      170
   29.875      170
   29.890      177
   29.905      186
   29.920      200
   29.935      204
   29.950      185
   29.965      156
   29.980      174
   29.995      188
   30.010      205
   30.025      193
   30.040      200
   30.055      198
   30.070      205
   30.085      172
   30.100      203
   30.115      220
   30.130      191
   30.145      197
   30.160      202
   30.175      220
   30.190      232
   30.205      229
   30.220      234
   30.235      237
   30.250      229
   30.265      248
   30.280      254
   30.295      252
   30.310      218
   30.325      210
   30.340      208
   30.355      200
   30.370      182
   30.385      169
   30.400      165
   30.415      152
   30.430      165
   30.445      167
   30.460      172
   30.475      173
   30.490      197
   30.505      212
   30.520      221
   30.535      216
   30.550      255
   30.565      281
   30.580      251
   30.595      268
   30.610      272
   30.625      254
   30.640      248
   30.655      247
   30.670      252
   30.685      208
   30.700      232
   30.715      210
   30.730      229
   30.745      209
   30.760      204
   30.775      197
   30.790      219
   30.805      195
   30.820      190
   30.835      204
   30.850      202
   30.865      208
   30.880      209
   30.895      219
   30.910      211
   30.925      219
   30.940      195
   30.955      204
   30.970      216
   30.985      211
   31.000      236
   31.015      228
   31.030      258
   31.045      235
   31.060      237
   31.075      223
   31.090      227
   31.105      219
   31.120      210
   31.135      226
   31.150      263
   31.165      243
   31.180      225
   31.195      242
   31.210      265
   31.225      238
   31.240      224
   31.255      239
   31.270      205
   31.285      201
   31.300      229
   31.315      227
   31.330      222
   31.345      232
   31.360      231
   31.375      255
   31.390      257
   31.405      253
   31.420      227
   31.435      258
   31.450      276
   31.465      315
   31.480      338
   31.495      338
   31.510      324
   31.525      307
   31.540      275
   31.555      262
   31.570      245
   31.585      252
   31.600      254
   31.615      275
   31.630      230
   31.645      230
   31.660      237
   31.675      254
   31.690      231
   31.705      213
   31.720      224
   31.735      231
   31.750      226
   31.765      227
   31.780      218
   31.795      206
   31.810      216
   31.825      198
   31.840      165
   31.855      189
   31.870      191
   31.885      183
   31.900      181
   31.915      198
   31.930      184
   31.945      187
   31.960      207
   31.975      202
   31.990      199
   32.005      187
   32.020      171
   32.035      196
   32.050      185
   32.065      186
   32.080      170
   32.095      171
   32.110      143
   32.125      151
   32.140      145
   32.155      160
   32.170      180
   32.185      177
   32.200      180
   32.215      177
   32.230      177
   32.245      170
   32.260      163
   32.275      170
   32.290      189
   32.305      180
   32.320      189
   32.335      195
   32.350      171
   32.365      169
   32.380      182
   32.395      176
   32.410      183
   32.425      184
   32.440      186
   32.455      203
   32.470      208
   32.485      230
   32.500      244
   32.515      251
   32.530      279
   32.545      330
   32.560      320
   32.575      316
   32.590      327
   32.605      315
   32.620      318
   32.635      271
   32.650      247
   32.665      224
   32.680      210
   32.695      199
   32.710      223
   32.725      206
   32.740      177
   32.755      219
   32.770      209
   32.785      218
   32.800      206
   32.815      217
   32.830      214
   32.845      203
   32.860      213
   32.875      201
   32.890      194
   32.905      189
   32.920      196
   32.935      191
   32.950      201
   32.965      229
   32.980      243
   32.995      234
   33.010      255
   33.025      263
   33.040      259
   33.055      295
   33.070      326
   33.085      293
   33.100      313
   33.115      309
   33.130      290
   33.145      302
   33.160      271
   33.175      263
   33.190      241
   33.205      273
   33.220      238
   33.235      246
   33.250      208
   33.265      208
   33.280      208
   33.295      217
   33.310      218
   33.325      245
   33.340      254
   33.355      248
   33.370      294
   33.385      286
   33.400      312
   33.415      328
   33.430      333
   33.445      302
   33.460      267
   33.475      259
   33.490      234
   33.505      213
   33.520      233
   33.535      235
   33.550      249
   33.565      236
   33.580      257
   33.595      264
   33.610      243
   33.625      243
   33.640      236
   33.655      229
   33.670      239
   33.685      206
   33.700      190
   33.715      187
   33.730      198
   33.745      210
   33.760      227
   33.775      208
   33.790      190
   33.805      185
   33.820      188
   33.835      190
   33.850      177
   33.865      159
   33.880      179
   33.895      178
   33.910      173
   33.925      184
   33.940      184
   33.955      159
   33.970      165
   33.985      172
   34.000      198
   34.015      201
   34.030      220
   34.045      222
   34.060      197
   34.075      232
   34.090      232
   34.105      254
   34.120      247
   34.135      241
   34.150      220
   34.165      203
   34.180      209
   34.195      194
   34.210      186
   34.225      178
   34.240      162
   34.255      160
   34.270      181
   34.285      209
   34.300      198
   34.315      206
   34.330      230
   34.345      234
   34.360      214
   34.375      195
   34.390      195
   34.405      199
   34.420      217
   34.435      196
   34.450      207
   34.465      216
   34.480      187
   34.495      186
   34.510      201
   34.525      207
   34.540      201
   34.555      214
   34.570      191
   34.585      205
   34.600      205
   34.615      221
   34.630      227
   34.645      234
   34.660      225
   34.675      224
   34.690      223
   34.705      207
   34.720      216
   34.735      211
   34.750      210
   34.765      246
   34.780      274
   34.795      246
   34.810      264
   34.825      284
   34.840      277
   34.855      280
   34.870      272
   34.885      279
   34.900      278
   34.915      257
   34.930      274
   34.945      310
   34.960      298
   34.975      340
   34.990      368
   35.005      352
   35.020      351
   35.035      362
   35.050      346
   35.065      329
   35.080      309
   35.095      299
   35.110      323
   35.125      343
   35.140      338
   35.155      353
   35.170      369
   35.185      344
   35.200      325
   35.215      303
   35.230      278
   35.245      273
   35.260      275
   35.275      260
   35.290      236
   35.305      241
   35.320      204
   35.335      202
   35.350      199
   35.365      176
   35.380      168
   35.395      167
   35.410      171
   35.425      178
   35.440      173
   35.455      175
   35.470      160
   35.485      176
   35.500      182
   35.515      178
   35.530      166
   35.545      178
   35.560      174
   35.575      171
   35.590      160
   35.605      176
   35.620      157
   35.635      177
   35.650      175
   35.665      179
   35.680      171
   35.695      195
   35.710      166
   35.725      194
   35.740      196
   35.755      161
   35.770      187
   35.785      191
   35.800      188
   35.815      208
   35.830      231
   35.845      226
   35.860      238
   35.875      237
   35.890      228
   35.905      217
   35.920      194
   35.935      200
   35.950      178
   35.965      189
   35.980      196
   35.995      191
   36.010      189
   36.025      196
   36.040      198
   36.055      180
   36.070      163
   36.085      191
   36.100      195
   36.115      159
   36.130      166
   36.145      190
   36.160      180
   36.175      177
   36.190      151
   36.205      157
   36.220      157
   36.235      180
   36.250      181
   36.265      191
   36.280      212
   36.295      205
   36.310      201
   36.325      215
   36.340      208
   36.355      203
   36.370      193
   36.385      154
   36.400      173
   36.415      178
   36.430      149
   36.445      143
   36.460      177
   36.475      186
   36.490      174
   36.505      175
   36.520      178
   36.535      163
   36.550      198
   36.565      185
   36.580      206
   36.595      170
   36.610      188
   36.625      179
   36.640      202
   36.655      214
   36.670      195
   36.685      194
   36.700      205
   36.715      188
   36.730      182
   36.745      185
   36.760      181
   36.775      182
   36.790      204
   36.805      216
   36.820      224
   36.835      196
   36.850      196
   36.865      196
   36.880      201
   36.895      194
   36.910      178
   36.925      169
   36.940      163
   36.955      168
   36.970      149
   36.985      171
   37.000      167
   37.015      155
   37.030      152
   37.045      141
   37.060      140
   37.075      164
   37.090      150
   37.105      157
   37.120      168
   37.135      157
   37.150      167
   37.165      168
   37.180      173
   37.195      176
   37.210      172
   37.225      158
   37.240      159
   37.255      163
   37.270      161
   37.285      152
   37.300      159
   37.315      158
   37.330      168
   37.345      158
   37.360      182
   37.375      161
   37.390      184
   37.405      178
   37.420      191
   37.435      175
   37.450      165
   37.465      155
   37.480      177
   37.495      191
   37.510      189
   37.525      179
   37.540      202
   37.555      214
   37.570      206
   37.585      218
   37.600      199
   37.615      175
   37.630      173
   37.645      165
   37.660      174
   37.675      151
   37.690      156
   37.705      172
   37.720      174
   37.735      176
   37.750      178
   37.765      181
   37.780      164
   37.795      157
   37.810      170
   37.825      166
   37.840      168
   37.855      191
   37.870      186
   37.885      199
   37.900      212
   37.915      224
   37.930      224
   37.945      206
   37.960      198
   37.975      185
   37.990      168
   38.005      159
   38.020      167
   38.035      171
   38.050      186
   38.065      198
   38.080      189
   38.095      194
   38.110      188
   38.125      187
   38.140      181
   38.155      184
   38.170      187
   38.185      178
   38.200      174
   38.215      170
   38.230      174
   38.245      188
   38.260      182
   38.275      163
   38.290      170
   38.305      160
   38.320      165
   38.335      180
   38.350      161
   38.365      187
   38.380      201
   38.395      192
   38.410      171
   38.425      178
   38.440      187
   38.455      174
   38.470      180
   38.485      178
   38.500      194
   38.515      190
   38.530      174
   38.545      194
   38.560      178
   38.575      159
   38.590      155
   38.605      159
   38.620      191
   38.635      170
   38.650      157
   38.665      152
   38.680      172
   38.695      163
   38.710      153
   38.725      144
   38.740      154
   38.755      154
   38.770      155
   38.785      155
   38.800      142
   38.815      145
   38.830      137
   38.845      153
   38.860      157
   38.875      135
   38.890      155
   38.905      132
   38.920      138
   38.935      132
   38.950      135
   38.965      145
   38.980      147
   38.995      139
   39.010      136
   39.025      141
   39.040      148
   39.055      135
   39.070      142
   39.085      145
   39.100      135
   39.115      142
   39.130      142
   39.145      152
   39.160      132
   39.175      143
   39.190      162
   39.205      162
   39.220      150
   39.235      156
   39.250      162
   39.265      155
   39.280      186
   39.295      164
   39.310      157
   39.325      175
   39.340      152
   39.355      167
   39.370      164
   39.385      180
   39.400      174
   39.415      164
   39.430      165
   39.445      166
   39.460      161
   39.475      155
   39.490      174
   39.505      142
   39.520      147
   39.535      137
   39.550      131
   39.565      143
   39.580      147
   39.595      159
   39.610      148
   39.625      150
   39.640      148
   39.655      137
   39.670      134
   39.685      143
   39.700      154
   39.715      159
   39.730      147
   39.745      140
   39.760      127
   39.775      149
   39.790      146
   39.805      165
   39.820      147
   39.835      150
   39.850      154
   39.865      182
   39.880      185
   39.895      168
   39.910      164
   39.925      162
   39.940      171
   39.955      189
   39.970      186
   39.985      206
   40.000      216
   40.015      200
   40.030      208
   40.045      181
   40.060      176
   40.075      163
   40.090      160
   40.105      166
   40.120      148
   40.135      144
   40.150      158
   40.165      155
   40.180      147
   40.195      151
   40.210      166
   40.225      170
   40.240      181
   40.255      195
   40.270      185
   40.285      198
   40.300      204
   40.315      209
   40.330      184
   40.345      182
   40.360      190
   40.375      187
   40.390      154
   40.405      161
   40.420      141
   40.435      135
   40.450      137
   40.465      121
   40.480      136
   40.495      157
   40.510      151
   40.525      138
   40.540      148
   40.555      157
   40.570      163
   40.585      146
   40.600      147
   40.615      152
   40.630      149
   40.645      139
   40.660      150
   40.675      126
   40.690      118
   40.705      129
   40.720      138
   40.735      145
   40.750      144
   40.765      145
   40.780      133
   40.795      127
   40.810      127
   40.825      131
   40.840      134
   40.855      145
   40.870      146
   40.885      137
   40.900      126
   40.915      141
   40.930      130
   40.945      126
   40.960      135
   40.975      141
   40.990      157
   41.005      158
   41.020      154
   41.035      140
   41.050      144
   41.065      135
   41.080      124
   41.095      129
   41.110      140
   41.125      147
   41.140      144
   41.155      161
   41.170      157
   41.185      149
   41.200      153
   41.215      142
   41.230      158
   41.245      153
   41.260      135
   41.275      150
   41.290      153
   41.305      171
   41.320      159
   41.335      169
   41.350      155
   41.365      160
   41.380      147
   41.395      140
   41.410      161
   41.425      168
   41.440      162
   41.455      157
   41.470      145
   41.485      140
   41.500      156
   41.515      154
   41.530      172
   41.545      158
   41.560      161
   41.575      167
   41.590      163
   41.605      166
   41.620      172
   41.635      158
   41.650      155
   41.665      149
   41.680      140
   41.695      146
   41.710      168
   41.725      141
   41.740      136
   41.755      144
   41.770      147
   41.785      154
   41.800      164
   41.815      163
   41.830      162
   41.845      173
   41.860      126
   41.875      137
   41.890      136
   41.905      169
   41.920      155
   41.935      152
   41.950      171
   41.965      144
   41.980      166
   41.995      168
   42.010      150
   42.025      158
   42.040      147
   42.055      133
   42.070      130
   42.085      126
   42.100      128
   42.115      143
   42.130      150
   42.145      130
   42.160      144
   42.175      139
   42.190      143
   42.205      133
   42.220      155
   42.235      139
   42.250      151
   42.265      146
   42.280      154
   42.295      155
   42.310      152
   42.325      137
   42.340      131
   42.355      138
   42.370      145
   42.385      141
   42.400      130
   42.415      144
   42.430      129
   42.445      148
   42.460      159
   42.475      165
   42.490      169
   42.505      147
   42.520      160
   42.535      177
   42.550      173
   42.565      171
   42.580      158
   42.595      159
   42.610      158
   42.625      158
   42.640      166
   42.655      170
   42.670      164
   42.685      140
   42.700      152
   42.715      141
   42.730      145
   42.745      150
   42.760      138
   42.775      158
   42.790      151
   42.805      147
   42.820      136
   42.835      165
   42.850      159
   42.865      122
   42.880      131
   42.895      115
   42.910      130
   42.925      143
   42.940      129
   42.955      130
   42.970      129
   42.985      139
   43.000      144
   43.015      135
   43.030      124
   43.045      129
   43.060      139
   43.075      140
   43.090      138
   43.105      141
   43.120      158
   43.135      143
   43.150      138
   43.165      150
   43.180      153
   43.195      157
   43.210      121
   43.225      128
   43.240      136
   43.255      142
   43.270      133
   43.285      146
   43.300      136
   43.315      129
   43.330      114
   43.345      118
   43.360      125
   43.375      124
   43.390      140
   43.405      143
   43.420      145
   43.435      143
   43.450      146
   43.465      156
   43.480      161
   43.495      131
   43.510      137
   43.525      144
   43.540      149
   43.555      147
   43.570      139
   43.585      163
   43.600      142
   43.615      141
   43.630      136
   43.645      147
   43.660      145
   43.675      132
   43.690      152
   43.705      167
   43.720      148
   43.735      136
   43.750      141
   43.765      147
   43.780      131
   43.795      149
   43.810      147
   43.825      121
   43.840      141
   43.855      143
   43.870      141
   43.885      166
   43.900      175
   43.915      163
   43.930      168
   43.945      173
   43.960      164
   43.975      159
   43.990      146
   44.005      153
   44.020      160
   44.035      159
   44.050      136
   44.065      162
   44.080      161
   44.095      165
   44.110      158
   44.125      169
   44.140      155
   44.155      146
   44.170      165
   44.185      166
   44.200      146
   44.215      154
   44.230      165
   44.245      166
   44.260      167
   44.275      167
   44.290      161
   44.305      146
   44.320      141
   44.335      141
   44.350      160
   44.365      170
   44.380      158
   44.395      159
   44.410      148
   44.425      170
   44.440      184
   44.455      175
   44.470      160
   44.485      182
   44.500      183
   44.515      181
   44.530      185
   44.545      195
   44.560      189
   44.575      200
   44.590      185
   44.605      179
   44.620      173
   44.635      164
   44.650      152
   44.665      166
   44.680      185
   44.695      177
   44.710      175
   44.725      162
   44.740      167
   44.755      159
   44.770      179
   44.785      168
   44.800      142
   44.815      139
   44.830      132
   44.845      130
   44.860      134
   44.875      139
   44.890      161
   44.905      148
   44.920      143
   44.935      133
   44.950      142
   44.965      178
   44.980      164
   44.995      141
   45.010      157
   45.025      147
   45.040      134
   45.055      120
   45.070      139
   45.085      127
   45.100      148
   45.115      145
   45.130      128
   45.145      128
   45.160      135
   45.175      120
   45.190      119
   45.205      129
   45.220      129
   45.235      134
   45.250      119
   45.265      140
   45.280      147
   45.295      136
   45.310      137
   45.325      129
   45.340      140
   45.355      130
   45.370      144
   45.385      125
   45.400      128
   45.415      137
   45.430      150
   45.445      151
   45.460      150
   45.475      129
   45.490      145
   45.505      136
   45.520      140
   45.535      127
   45.550      136
   45.565      136
   45.580      142
   45.595      143
   45.610      167
   45.625      156
   45.640      155
   45.655      156
   45.670      164
   45.685      159
   45.700      143
   45.715      158
   45.730      140
   45.745      130
   45.760      145
   45.775      119
   45.790      140
   45.805      155
   45.820      146
   45.835      138
   45.850      133
   45.865      130
   45.880      137
   45.895      151
   45.910      141
   45.925      141
   45.940      150
   45.955      136
   45.970      145
   45.985      155
