    4.000       46
    4.015       43
    4.030       49
    4.045       46
    4.060       41
    4.075       52
    4.090       53
    4.105       47
    4.120       53
    4.135       52
    4.150       39
    4.165       47
    4.180       50
    4.195       45
    4.210       38
    4.225       41
    4.240       50
    4.255       48
    4.270       55
    4.285       46
    4.300       37
    4.315       33
    4.330       36
    4.345       41
    4.360       41
    4.375       49
    4.390       41
    4.405       50
    4.420       46
    4.435       42
    4.450       54
    4.465       46
    4.480       51
    4.495       41
    4.510       41
    4.525       37
    4.540       49
    4.555       41
    4.570       45
    4.585       48
    4.600       40
    4.615       42
    4.630       49
    4.645       45
    4.660       41
    4.675       44
    4.690       41
    4.705       39
    4.720       36
    4.735       41
    4.750       37
    4.765       41
    4.780       38
    4.795       47
    4.810       40
    4.825       33
    4.840       41
    4.855       45
    4.870       46
    4.885       38
    4.900       45
    4.915       42
    4.930       35
    4.945       39
    4.960       35
    4.975       44
    4.990       48
    5.005       46
    5.020       47
    5.035       48
    5.050       50
    5.065       51
    5.080       43
    5.095       49
    5.110       48
    5.125       42
    5.140       48
    5.155       48
    5.170       43
    5.185       49
    5.200       50
    5.215       46
    5.230       48
    5.245       40
    5.260       42
    5.275       44
    5.290       49
    5.305       47
    5.320       51
    5.335       48
    5.350       42
    5.365       37
    5.380       44
    5.395       45
    5.410       38
    5.425       42
    5.440       41
    5.455       48
    5.470       47
    5.485       44
    5.500       47
    5.515       48
    5.530       39
    5.545       39
    5.560       29
    5.575       35
    5.590       40
    5.605       40
    5.620       47
    5.635       45
    5.650       38
    5.665       46
    5.680       36
    5.695       42
    5.710       49
    5.725       43
    5.740       50
    5.755       31
    5.770       40
    5.785       45
    5.800       38
    5.815       33
    5.830       32
    5.845       42
    5.860       58
    5.875       45
    5.890       44
    5.905       49
    5.920       43
    5.935       40
    5.950       40
    5.965       40
    5.980       48
    5.995       50
    6.010       50
    6.025       39
    6.040       41
    6.055       42
    6.070       49
    6.085       42
    6.100       44
    6.115       39
    6.130       38
    6.145       40
    6.160       47
    6.175       40
    6.190       48
    6.205       43
    6.220       55
    6.235       51
    6.250       48
    6.265       39
    6.280       41
    6.295       67
    6.310       69
    6.325       73
    6.340       81
    6.355       77
    6.370       78
    6.385       76
    6.400       76
    6.415       90
    6.430      111
    6.445      102
    6.460      122
    6.475      134
    6.490      137
    6.505      132
    6.520      139
    6.535      162
    6.550      191
    6.565      204
    6.580      247
    6.595      286
    6.610      363
    6.625      348
    6.640      332
    6.655      314
    6.670      343
    6.685      268
    6.700      163
    6.715      106
    6.730       59
    6.745       53
    6.760       39
    6.775       40
    6.790       46
    6.805       43
    6.820       42
    6.835       41
    6.850       49
    6.865       45
    6.880       38
    6.895       40
    6.910       47
    6.925       45
    6.940       49
    6.955       52
    6.970       53
    6.985       42
    7.000       43
    7.015       51
    7.030       55
    7.045       61
    7.060       45
    7.075       60
    7.090       52
    7.105       58
    7.120       61
    7.135       70
    7.150       79
    7.165       88
    7.180       83
    7.195       94
    7.210       90
    7.225       60
    7.240       60
    7.255       61
    7.270       43
    7.285       41
    7.300       36
    7.315       38
    7.330       45
    7.345       36
    7.360       38
    7.375       42
    7.390       37
    7.405       37
    7.420       40
    7.435       45
    7.450       42
    7.465       40
    7.480       35
    7.495       37
    7.510       43
    7.525       41
    7.540       36
    7.555       40
    7.570       40
    7.585       42
    7.600       48
    7.615       45
    7.630       43
    7.645       48
    7.660       48
    7.675       44
    7.690       41
    7.705       45
    7.720       37
    7.735       42
    7.750       48
    7.765       47
    7.780       34
    7.795       40
    7.810       44
    7.825       38
    7.840       43
    7.855       41
    7.870       38
    7.885       46
    7.900       46
    7.915       46
    7.930       36
    7.945       39
    7.960       43
    7.975       44
    7.990       41
    8.005       41
    8.020       45
    8.035       39
    8.050       39
    8.065       41
    8.080       36
    8.095       42
    8.110       40
    8.125       44
    8.140       41
    8.155       40
    8.170       39
    8.185       40
    8.200       39
    8.215       39
    8.230       33
    8.245       37
    8.260       40
    8.275       36
    8.290       36
    8.305       38
    8.320       44
    8.335       37
    8.350       39
    8.365       42
    8.380       37
    8.395       51
    8.410       42
    8.425       34
    8.440       31
    8.455       38
    8.470       38
    8.485       40
    8.500       35
    8.515       45
    8.530       49
    8.545       54
    8.560       51
    8.575       41
    8.590       51
    8.605       60
    8.620       53
    8.635       34
    8.650       39
    8.665       46
    8.680       39
    8.695       41
    8.710       47
    8.725       39
    8.740       39
    8.755       44
    8.770       51
    8.785       57
    8.800       38
    8.815       53
    8.830       52
    8.845       47
    8.860       37
    8.875       49
    8.890       38
    8.905       43
    8.920       47
    8.935       44
    8.950       48
    8.965       46
    8.980       49
    8.995       37
    9.010       41
    9.025       38
    9.040       50
    9.055       52
    9.070       48
    9.085       45
    9.100       44
    9.115       48
    9.130       55
    9.145       54
    9.160       42
    9.175       36
    9.190       42
    9.205       47
    9.220       45
    9.235       51
    9.250       50
    9.265       40
    9.280       44
    9.295       48
    9.310       51
    9.325       44
    9.340       50
    9.355       46
    9.370       44
    9.385       48
    9.400       54
    9.415       48
    9.430       39
    9.445       49
    9.460       40
    9.475       44
    9.490       43
    9.505       44
    9.520       38
    9.535       48
    9.550       49
    9.565       49
    9.580       51
    9.595       34
    9.610       38
    9.625       50
    9.640       63
    9.655       56
    9.670       53
    9.685       44
    9.700       35
    9.715       56
    9.730       54
    9.745       49
    9.760       54
    9.775       40
    9.790       47
    9.805       53
    9.820       55
    9.835       48
    9.850       47
    9.865       51
    9.880       49
    9.895       43
    9.910       42
    9.925       52
    9.940       39
    9.955       41
    9.970       33
    9.985       47
   10.000       42
   10.015       47
   10.030       51
   10.045       42
   10.060       42
   10.075       54
   10.090       49
   10.105       46
   10.120       44
   10.135       48
   10.150       37
   10.165       43
   10.180       49
   10.195       49
   10.210       53
   10.225       52
   10.240       55
   10.255       62
   10.270       59
   10.285       60
   10.300       59
   10.315       41
   10.330       45
   10.345       50
   10.360       57
   10.375       49
   10.390       46
   10.405       64
   10.420       62
   10.435       54
   10.450       62
   10.465       61
   10.480       77
   10.495       90
   10.510       74
   10.525       56
   10.540       46
   10.555       49
   10.570       56
   10.585       55
   10.600       61
   10.615       56
   10.630       57
   10.645       62
   10.660       61
   10.675       65
   10.690       59
   10.705       77
   10.720       90
   10.735       84
   10.750       88
   10.765      109
   10.780      141
   10.795      139
   10.810      131
   10.825      145
   10.840      170
   10.855      183
   10.870      247
   10.885      250
   10.900      194
   10.915      139
   10.930      104
   10.945       82
   10.960       53
   10.975       48
   10.990       50
   11.005       45
   11.020       56
   11.035       45
   11.050       56
   11.065       54
   11.080       53
   11.095       52
   11.110       50
   11.125       59
   11.140       59
   11.155       51
   11.170       56
   11.185       56
   11.200       48
   11.215       58
   11.230       71
   11.245       79
   11.260       71
   11.275       66
   11.290       64
   11.305       61
   11.320       59
   11.335       50
   11.350       41
   11.365       50
   11.380       55
   11.395       48
   11.410       43
   11.425       57
   11.440       56
   11.455       61
   11.470       59
   11.485       63
   11.500       48
   11.515       38
   11.530       44
   11.545       44
   11.560       50
   11.575       46
   11.590       33
   11.605       34
   11.620       39
   11.635       49
   11.650       43
   11.665       44
   11.680       52
   11.695       53
   11.710       52
   11.725       62
   11.740       64
   11.755       58
   11.770       64
   11.785       64
   11.800       60
   11.815       82
   11.830       88
   11.845       67
   11.860       75
   11.875       76
   11.890       76
   11.905       84
   11.920       81
   11.935       74
   11.950       63
   11.965       66
   11.980       66
   11.995       61
   12.010       65
   12.025       63
   12.040       61
   12.055       40
   12.070       58
   12.085       67
   12.100       63
   12.115       61
   12.130       49
   12.145       56
   12.160       49
   12.175       42
   12.190       43
   12.205       48
   12.220       49
   12.235       45
   12.250       53
   12.265       50
   12.280       42
   12.295       38
   12.310       45
   12.325       43
   12.340       50
   12.355       47
   12.370       50
   12.385       44
   12.400       42
   12.415       52
   12.430       63
   12.445       55
   12.460       68
   12.475       52
   12.490       54
   12.505       58
   12.520       56
   12.535       63
   12.550       76
   12.565       76
   12.580       62
   12.595       82
   12.610      102
   12.625      110
   12.640      127
   12.655      151
   12.670      165
   12.685      205
   12.700      263
   12.715      253
   12.730      228
   12.745      174
   12.760      180
   12.775      183
   12.790      155
   12.805      139
   12.820      102
   12.835       75
   12.850       68
   12.865       58
   12.880       56
   12.895       60
   12.910       64
   12.925       63
   12.940       77
   12.955       79
   12.970       79
   12.985       86
   13.000       93
   13.015       98
   13.030      101
   13.045      132
   13.060      203
   13.075      217
   13.090      227
   13.105      175
   13.120      141
   13.135      143
   13.150      161
   13.165      190
   13.180      234
   13.195      262
   13.210      281
   13.225      360
   13.240      402
   13.255      432
   13.270      496
   13.285      564
   13.300      473
   13.315      423
   13.330      400
   13.345      522
   13.360      699
   13.375      928
   13.390      865
   13.405      645
   13.420      403
   13.435      253
   13.450      139
   13.465      106
   13.480       92
   13.495      101
   13.510      126
   13.525      121
   13.540      139
   13.555      153
   13.570      168
   13.585      213
   13.600      229
   13.615      278
   13.630      299
   13.645      326
   13.660      313
   13.675      226
   13.690      169
   13.705      100
   13.720       83
   13.735       68
   13.750       69
   13.765       66
   13.780       64
   13.795       61
   13.810       61
   13.825       71
   13.840       61
   13.855       72
   13.870       78
   13.885       72
   13.900       99
   13.915       76
   13.930       74
   13.945       61
   13.960       50
   13.975       49
   13.990       60
   14.005       60
   14.020       50
   14.035       52
   14.050       63
   14.065       57
   14.080       51
   14.095       52
   14.110       52
   14.125       62
   14.140       60
   14.155       67
   14.170       74
   14.185       67
   14.200       69
   14.215       69
   14.230       78
   14.245       87
   14.260       94
   14.275      106
   14.290      108
   14.305      129
   14.320      155
   14.335      202
   14.350      233
   14.365      230
   14.380      210
   14.395      151
   14.410      144
   14.425      148
   14.440      153
   14.455      144
   14.470      140
   14.485      141
   14.500      138
   14.515      165
   14.530      197
   14.545      201
   14.560      245
   14.575      287
   14.590      280
   14.605      191
   14.620      105
   14.635       89
   14.650       67
   14.665       69
   14.680       58
   14.695       71
   14.710       72
   14.725       61
   14.740       56
   14.755       57
   14.770       46
   14.785       54
   14.800       68
   14.815       56
   14.830       54
   14.845       62
   14.860       57
   14.875       64
   14.890       69
   14.905       64
   14.920       78
   14.935       77
   14.950       73
   14.965       88
   14.980      118
   14.995      118
   15.010      154
   15.025      171
   15.040      220
   15.055      255
   15.070      280
   15.085      326
   15.100      388
   15.115      439
   15.130      530
   15.145      643
   15.160      691
   15.175      602
   15.190      442
   15.205      271
   15.220      168
   15.235      133
   15.250      138
   15.265      132
   15.280      161
   15.295      158
   15.310      161
   15.325      145
   15.340      150
   15.355      167
   15.370      193
   15.385      207
   15.400      191
   15.415      189
   15.430      172
   15.445      162
   15.460      139
   15.475      116
   15.490      102
   15.505       99
   15.520      117
   15.535      118
   15.550      128
   15.565      161
   15.580      174
   15.595      211
   15.610      273
   15.625      299
   15.640      316
   15.655      352
   15.670      345
   15.685      286
   15.700      217
   15.715      170
   15.730      166
   15.745      171
   15.760      175
   15.775      159
   15.790      158
   15.805      172
   15.820      182
   15.835      209
   15.850      221
   15.865      212
   15.880      181
   15.895      131
   15.910       98
   15.925       85
   15.940       86
   15.955       68
   15.970       67
   15.985       70
   16.000       59
   16.015       76
   16.030       73
   16.045       87
   16.060      100
   16.075       83
   16.090       86
   16.105      114
   16.120      149
   16.135      162
   16.150      164
   16.165      208
   16.180      227
   16.195      245
   16.210      236
   16.225      237
   16.240      235
   16.255      179
   16.270      123
   16.285      110
   16.300       89
   16.315       96
   16.330      107
   16.345       98
   16.360      110
   16.375      131
   16.390      130
   16.405      140
   16.420      179
   16.435      199
   16.450      235
   16.465      269
   16.480      351
   16.495      424
   16.510      463
   16.525      399
   16.540      314
   16.555      278
   16.570      246
   16.585      228
   16.600      273
   16.615      292
   16.630      280
   16.645      253
   16.660      218
   16.675      221
   16.690      215
   16.705      209
   16.720      187
   16.735      210
   16.750      232
   16.765      275
   16.780      302
   16.795      282
   16.810      276
   16.825      256
   16.840      249
   16.855      266
   16.870      278
   16.885      219
   16.900      183
   16.915      155
   16.930      124
   16.945       88
   16.960       84
   16.975       95
   16.990      113
   17.005      109
   17.020      129
   17.035      132
   17.050      129
   17.065      158
   17.080      227
   17.095      273
   17.110      265
   17.125      218
   17.140      180
   17.155      149
   17.170      148
   17.185      167
   17.200      168
   17.215      201
   17.230      247
   17.245      319
   17.260      329
   17.275      346
   17.290      352
   17.305      359
   17.320      301
   17.335      236
   17.350      165
   17.365      134
   17.380      119
   17.395      128
   17.410      112
   17.425      101
   17.440      111
   17.455      104
   17.470       92
   17.485      106
   17.500      120
   17.515      138
   17.530      156
   17.545      197
   17.560      221
   17.575      184
   17.590      170
   17.605      125
   17.620      112
   17.635       75
   17.650       77
   17.665       76
   17.680       77
   17.695       93
   17.710      111
   17.725      114
   17.740      115
   17.755       97
   17.770       96
   17.785      103
   17.800       89
   17.815       89
   17.830      100
   17.845      102
   17.860       95
   17.875       90
   17.890       92
   17.905       86
   17.920       80
   17.935       77
   17.950       80
   17.965       77
   17.980       71
   17.995       68
   18.010       69
   18.025       73
   18.040       59
   18.055       57
   18.070       71
   18.085       54
   18.100       60
   18.115       65
   18.130       55
   18.145       63
   18.160       52
   18.175       56
   18.190       63
   18.205       70
   18.220       65
   18.235       71
   18.250       97
   18.265      108
   18.280      121
   18.295      137
   18.310      142
   18.325      156
   18.340      188
   18.355      223
   18.370      217
   18.385      225
   18.400      189
   18.415      155
   18.430      120
   18.445      110
   18.460       76
   18.475       71
   18.490       67
   18.505       59
   18.520       60
   18.535       68
   18.550       67
   18.565       69
   18.580       87
   18.595       90
   18.610      107
   18.625      113
   18.640      130
   18.655      146
   18.670      155
   18.685      133
   18.700      130
   18.715      138
   18.730      131
   18.745      145
   18.760      144
   18.775      121
   18.790      100
   18.805       77
   18.820       83
   18.835       72
   18.850       69
   18.865       58
   18.880       70
   18.895       51
   18.910       65
   18.925       77
   18.940       97
   18.955       89
   18.970       98
   18.985       95
   19.000       87
   19.015       69
   19.030       77
   19.045       77
   19.060       96
   19.075      108
   19.090       92
   19.105       66
   19.120       55
   19.135       68
   19.150       70
   19.165       74
   19.180       60
   19.195       63
   19.210       65
   19.225       64
   19.240       63
   19.255       58
   19.270       54
   19.285       69
   19.300       63
   19.315       74
   19.330       58
   19.345       56
   19.360       54
   19.375       56
   19.390       80
   19.405       68
   19.420       80
   19.435       64
   19.450       60
   19.465       77
   19.480       70
   19.495       65
   19.510       78
   19.525       77
   19.540       79
   19.555       87
   19.570       97
   19.585      121
   19.600      127
   19.615      111
   19.630      124
   19.645      133
   19.660      123
   19.675      133
   19.690      123
   19.705      142
   19.720      142
   19.735      122
   19.750      108
   19.765      106
   19.780       85
   19.795       85
   19.810       91
   19.825       89
   19.840       95
   19.855      112
   19.870      141
   19.885      169
   19.900      203
   19.915      213
   19.930      256
   19.945      315
   19.960      419
   19.975      477
   19.990      472
   20.005      425
   20.020      329
   20.035      252
   20.050      235
   20.065      232
   20.080      269
   20.095      297
   20.110      259
   20.125      253
   20.140      221
   20.155      161
   20.170      132
   20.185      117
   20.200       98
   20.215       84
   20.230       70
   20.245       85
   20.260       85
   20.275       84
   20.290       80
   20.305       88
   20.320       86
   20.335       83
   20.350       84
   20.365       78
   20.380       65
   20.395       64
   20.410       68
   20.425       64
   20.440       65
   20.455       70
   20.470       77
   20.485       73
   20.500       62
   20.515       55
   20.530       62
   20.545       57
   20.560       73
   20.575       78
   20.590       60
   20.605       66
   20.620       69
   20.635       74
   20.650       87
   20.665       78
   20.680       69
   20.695       80
   20.710       71
   20.725       81
   20.740       98
   20.755       70
   20.770       83
   20.785       96
   20.800      102
   20.815      111
   20.830      124
   20.845      125
   20.860      129
   20.875      128
   20.890      116
   20.905      138
   20.920      123
   20.935      129
   20.950      159
   20.965      138
   20.980      140
   20.995      101
   21.010       81
   21.025       74
   21.040       55
   21.055       71
   21.070       67
   21.085       66
   21.100       58
   21.115       59
   21.130       71
   21.145       68
   21.160       69
   21.175       65
   21.190       58
   21.205       60
   21.220       62
   21.235       59
   21.250       88
   21.265       76
   21.280       71
   21.295       82
   21.310       90
   21.325       97
   21.340       90
   21.355      101
   21.370       77
   21.385       71
   21.400       68
   21.415       57
   21.430       62
   21.445       55
   21.460       65
   21.475       70
   21.490       69
   21.505       49
   21.520       47
   21.535       51
   21.550       57
   21.565       63
   21.580       63
   21.595       68
   21.610       75
   21.625       83
   21.640       87
   21.655      108
   21.670      135
   21.685      166
   21.700      177
   21.715      142
   21.730      118
   21.745      112
   21.760      109
   21.775      120
   21.790      141
   21.805      163
   21.820      207
   21.835      291
   21.850      387
   21.865      459
   21.880      377
   21.895      335
   21.910      239
   21.925      171
   21.940      136
   21.955      119
   21.970      103
   21.985       80
   22.000       75
   22.015       87
   22.030       85
   22.045       82
   22.060       64
   22.075       66
   22.090       53
   22.105       55
   22.120       50
   22.135       48
   22.150       57
   22.165       60
   22.180       67
   22.195       54
   22.210       64
   22.225       50
   22.240       39
   22.255       51
   22.270       52
   22.285       51
   22.300       63
   22.315       50
   22.330       67
   22.345       60
   22.360       62
   22.375       81
   22.390       74
   22.405       78
   22.420       83
   22.435       87
   22.450       86
   22.465       98
   22.480       78
   22.495       86
   22.510       62
   22.525       66
   22.540       62
   22.555       61
   22.570       70
   22.585       70
   22.600       73
   22.615       78
   22.630       96
   22.645       79
   22.660       81
   22.675       96
   22.690      102
   22.705      111
   22.720      119
   22.735      122
   22.750       92
   22.765       80
   22.780       90
   22.795       89
   22.810       77
   22.825       81
   22.840       91
   22.855      112
   22.870      118
   22.885      136
   22.900      132
   22.915      125
   22.930      116
   22.945      123
   22.960      114
   22.975      115
   22.990       92
   23.005       71
   23.020       73
   23.035       66
   23.050       62
   23.065       65
   23.080       64
   23.095       67
   23.110       63
   23.125       61
   23.140       74
   23.155       72
   23.170       67
   23.185       74
   23.200       85
   23.215       90
   23.230       96
   23.245       79
   23.260      100
   23.275       90
   23.290       94
   23.305       90
   23.320       77
   23.335       65
   23.350       62
   23.365       57
   23.380       54
   23.395       61
   23.410       60
   23.425       58
   23.440       59
   23.455       47
   23.470       49
   23.485       68
   23.500       62
   23.515       54
   23.530       51
   23.545       46
   23.560       50
   23.575       63
   23.590       50
   23.605       63
   23.620       70
   23.635       65
   23.650       62
   23.665       45
   23.680       47
   23.695       63
   23.710       65
   23.725       61
   23.740       64
   23.755       54
   23.770       71
   23.785       74
   23.800       80
   23.815       77
   23.830       76
   23.845       73
   23.860       68
   23.875       64
   23.890       56
   23.905       64
   23.920       67
   23.935       61
   23.950       65
   23.965       59
   23.980       61
   23.995       63
   24.010       65
   24.025       68
   24.040       84
   24.055       85
   24.070       85
   24.085       84
   24.100       72
   24.115       65
   24.130       59
   24.145       54
   24.160       57
   24.175       54
   24.190       52
   24.205       52
   24.220       45
   24.235       51
   24.250       50
   24.265       55
   24.280       65
   24.295       70
   24.310       77
   24.325       89
   24.340       93
   24.355       70
   24.370       64
   24.385       59
   24.400       52
   24.415       44
   24.430       54
   24.445       53
   24.460       50
   24.475       60
   24.490       53
   24.505       49
   24.520       44
   24.535       58
   24.550       61
   24.565       60
   24.580       47
   24.595       58
   24.610       68
   24.625       56
   24.640       76
   24.655       86
   24.670       78
   24.685       81
   24.700       93
   24.715       91
   24.730       90
   24.745       95
   24.760       75
   24.775       74
   24.790       67
   24.805       72
   24.820       59
   24.835       74
   24.850       71
   24.865       58
   24.880       63
   24.895       56
   24.910       60
   24.925       46
   24.940       47
   24.955       60
   24.970       58
   24.985       66
   25.000       67
   25.015       71
   25.030       72
   25.045      104
   25.060      104
   25.075      105
   25.090       85
   25.105       69
   25.120       74
   25.135       70
   25.150       56
   25.165       63
   25.180       63
   25.195       55
   25.210       63
   25.225       62
   25.240       72
   25.255       87
   25.270       73
   25.285       64
   25.300       78
   25.315       77
   25.330       54
   25.345       52
   25.360       51
   25.375       56
   25.390       72
   25.405       55
   25.420       70
   25.435       83
   25.450       88
   25.465       91
   25.480      101
   25.495       92
   25.510      105
   25.525       77
   25.540       83
   25.555       65
   25.570       67
   25.585       61
   25.600       54
   25.615       50
   25.630       64
   25.645       69
   25.660       69
   25.675       85
   25.690       93
   25.705      103
   25.720      129
   25.735      125
   25.750      141
   25.765      122
   25.780      105
   25.795      107
   25.810       85
   25.825       80
   25.840       74
   25.855       74
   25.870       69
   25.885       77
   25.900       87
   25.915       93
   25.930       95
   25.945      114
   25.960      120
   25.975      122
   25.990      105
   26.005      104
   26.020       83
   26.035       77
   26.050       74
   26.065       73
   26.080       79
   26.095       68
   26.110       69
   26.125       62
   26.140       65
   26.155       74
   26.170       77
   26.185       74
   26.200       82
   26.215       89
   26.230       86
   26.245       96
   26.260       86
   26.275       79
   26.290       78
   26.305       84
   26.320       70
   26.335       73
   26.350       66
   26.365       73
   26.380       72
   26.395       66
   26.410       74
   26.425       70
   26.440       78
   26.455       72
   26.470       77
   26.485       68
   26.500       62
   26.515       60
   26.530       54
   26.545       54
   26.560       62
   26.575       54
   26.590       68
   26.605       72
   26.620       65
   26.635       57
   26.650       65
   26.665       62
   26.680       55
   26.695       56
   26.710       58
   26.725       70
   26.740       69
   26.755       81
   26.770       92
   26.785       65
   26.800       65
   26.815       70
   26.830       62
   26.845       61
   26.860       67
   26.875       72
   26.890       66
   26.905       77
   26.920       89
   26.935       86
   26.950       99
   26.965      123
   26.980      105
   26.995      113
   27.010      135
   27.025      105
   27.040      133
   27.055      122
   27.070      117
   27.085       97
   27.100       82
   27.115       81
   27.130       73
   27.145       74
   27.160       69
   27.175       61
   27.190       64
   27.205       62
   27.220       58
   27.235       59
   27.250       59
   27.265       64
   27.280       62
   27.295       61
   27.310       75
   27.325       73
   27.340       66
   27.355       69
   27.370       79
   27.385       79
   27.400       65
   27.415       70
   27.430       61
   27.445       75
   27.460       65
   27.475       73
   27.490       93
   27.505      100
   27.520       88
   27.535       89
   27.550       89
   27.565       79
   27.580       84
   27.595       98
   27.610      107
   27.625      118
   27.640      151
   27.655      137
   27.670      146
   27.685      170
   27.700      161
   27.715      161
   27.730      146
   27.745      116
   27.760      115
   27.775      103
   27.790       98
   27.805       73
   27.820       93
   27.835       81
   27.850       81
   27.865       87
   27.880       95
   27.895       92
   27.910       92
   27.925      107
   27.940       87
   27.955       94
   27.970      119
   27.985      119
   28.000      104
   28.015       85
   28.030       80
   28.045       84
   28.060       82
   28.075       84
   28.090       81
   28.105       83
   28.120       58
   28.135       72
   28.150       85
   28.165       70
   28.180       59
   28.195       75
   28.210       76
   28.225       61
   28.240       76
   28.255       74
   28.270       64
   28.285       79
   28.300       75
   28.315       80
   28.330       76
   28.345       86
   28.360       73
   28.375       84
   28.390       79
   28.405       84
   28.420       81
   28.435       91
   28.450       98
   28.465       98
   28.480      112
   28.495      102
   28.510      104
   28.525       66
   28.540       74
   28.555       71
   28.570       55
   28.585       55
   28.600       56
   28.615       55
   28.630       52
   28.645       50
   28.660       56
   28.675       59
   28.690       55
   28.705       74
   28.720       84
   28.735       82
   28.750       76
   28.765       59
   28.780       65
   28.795       75
   28.810       61
   28.825       62
   28.840       64
   28.855       75
   28.870       77
   28.885       76
   28.900       71
   28.915       78
   28.930       85
   28.945       77
   28.960       80
   28.975       83
   28.990       87
   29.005       78
   29.020       89
   29.035       90
   29.050       91
   29.065       90
   29.080       68
   29.095       79
   29.110       98
   29.125      113
   29.140      110
   29.155      103
   29.170       95
   29.185       84
   29.200       81
   29.215       89
   29.230       77
   29.245       77
   29.260       82
   29.275       84
   29.290       80
   29.305       89
   29.320       92
   29.335       89
   29.350       90
   29.365       78
   29.380       66
   29.395       63
   29.410       72
   29.425       76
   29.440       53
   29.455       60
   29.470       53
   29.485       70
   29.500       79
   29.515       65
   29.530       68
   29.545       63
   29.560       70
   29.575       75
   29.590       68
   29.605       68
   29.620       71
   29.635       81
   29.650      111
   29.665       88
   29.680       80
   29.695       89
   29.710       79
   29.725       76
   29.740       89
   29.755      108
   29.770      112
   29.785       94
   29.800       90
   29.815       84
   29.830       85
   29.845       90
   29.860       82
   29.875       84
   29.890       61
   29.905       67
   29.920       57
   29.935       68
   29.950       84
   29.965       60
   29.980       62
   29.995       73
   30.010       51
   30.025       63
   30.040       65
   30.055       67
   30.070       65
   30.085       57
   30.100       55
   30.115       54
   30.130       65
   30.145       61
   30.160       58
   30.175       62
   30.190       57
   30.205       53
   30.220       68
   30.235       66
   30.250       62
   30.265       67
   30.280       70
   30.295       54
   30.310       63
   30.325       67
   30.340       69
   30.355       63
   30.370       62
   30.385       69
   30.400       67
   30.415       59
   30.430       53
   30.445       54
   30.460       60
   30.475       76
   30.490       77
   30.505       65
   30.520       60
   30.535       57
   30.550       66
   30.565       74
   30.580       67
   30.595       71
   30.610       73
   30.625       72
   30.640       79
   30.655       83
   30.670       81
   30.685       81
   30.700       87
   30.715       85
   30.730       84
   30.745       87
   30.760       86
   30.775       85
   30.790       79
   30.805       66
   30.820       73
   30.835       68
   30.850       76
   30.865       77
   30.880       81
   30.895       70
   30.910       57
   30.925       62
   30.940       57
   30.955       60
   30.970       60
   30.985       72
   31.000       89
   31.015       76
   31.030       84
   31.045       99
   31.060       86
   31.075       87
   31.090       85
   31.105      100
   31.120       96
   31.135       97
   31.150       86
   31.165       97
   31.180       78
   31.195       74
   31.210       77
   31.225       67
   31.240       73
   31.255       63
   31.270       66
   31.285       77
   31.300       63
   31.315       54
   31.330       64
   31.345       66
   31.360       53
   31.375       66
   31.390       62
   31.405       71
   31.420       72
   31.435       71
   31.450       67
   31.465       78
   31.480       75
   31.495       68
   31.510       67
   31.525       80
   31.540       75
   31.555       68
   31.570       73
   31.585       70
   31.600       80
   31.615       88
   31.630       82
   31.645       85
   31.660       82
   31.675       88
   31.690       85
   31.705       79
   31.720       91
   31.735       90
   31.750       78
   31.765       71
   31.780       91
   31.795       92
   31.810       87
   31.825       94
   31.840      100
   31.855      109
   31.870       84
   31.885       97
   31.900       98
   31.915       93
   31.930       92
   31.945       80
   31.960       74
   31.975       65
   31.990       75
   32.005       85
   32.020       84
   32.035       90
   32.050       85
   32.065       89
   32.080       74
   32.095       71
   32.110       72
   32.125       76
   32.140       85
   32.155       84
   32.170       81
   32.185       88
   32.200       90
   32.215       93
   32.230       94
   32.245       82
   32.260       66
   32.275       64
   32.290       79
   32.305       72
   32.320       69
   32.335       55
   32.350       63
   32.365       65
   32.380       57
   32.395       72
   32.410       66
   32.425       56
   32.440       56
   32.455       55
   32.470       52
   32.485       64
   32.500       68
   32.515       71
   32.530       59
   32.545       63
   32.560       59
   32.575       53
   32.590       55
   32.605       57
   32.620       47
   32.635       48
   32.650       48
   32.665       51
   32.680       64
   32.695       56
   32.710       51
   32.725       73
   32.740       60
   32.755       65
   32.770       68
   32.785       57
   32.800       66
   32.815       43
   32.830       56
   32.845       44
   32.860       52
   32.875       70
   32.890       61
   32.905       44
   32.920       57
   32.935       56
   32.950       58
   32.965       61
   32.980       55
   32.995       62
   33.010       72
   33.025       84
   33.040       76
   33.055       79
   33.070       71
   33.085       97
   33.100       69
   33.115       68
   33.130       75
   33.145       77
   33.160       70
   33.175       71
   33.190       63
   33.205       67
   33.220       69
   33.235       67
   33.250       64
   33.265       67
   33.280       61
   33.295       76
   33.310       69
   33.325       68
   33.340       63
   33.355       54
   33.370       58
   33.385       69
   33.400       70
   33.415       72
   33.430       67
   33.445       56
   33.460       69
   33.475       70
   33.490       79
   33.505       72
   33.520       75
   33.535       62
   33.550       81
   33.565       93
   33.580      106
   33.595      113
   33.610      102
   33.625       93
   33.640       88
   33.655       64
   33.670       74
   33.685       73
   33.700       80
   33.715       79
   33.730       79
   33.745       80
   33.760       83
   33.775       66
   33.790       64
   33.805       71
   33.820       78
   33.835       76
   33.850       82
   33.865       81
   33.880       99
   33.895       77
   33.910      102
   33.925       84
   33.940       85
   33.955       75
   33.970       68
   33.985       70
   34.000       68
   34.015       68
   34.030       69
   34.045       68
   34.060       54
   34.075       73
   34.090       78
   34.105       60
   34.120       77
   34.135       80
   34.150       66
   34.165       63
   34.180       63
   34.195       59
   34.210       63
   34.225       66
   34.240       71
   34.255       63
   34.270       50
   34.285       57
   34.300       57
   34.315       54
   34.330       60
   34.345       60
   34.360       51
   34.375       64
   34.390       62
   34.405       52
   34.420       56
   34.435       65
   34.450       60
   34.465       57
   34.480       50
   34.495       53
   34.510       59
   34.525       60
   34.540       64
   34.555       69
   34.570       56
   34.585       57
   34.600       56
   34.615       58
   34.630       57
   34.645       66
   34.660       69
   34.675       55
   34.690       64
   34.705       59
   34.720       51
   34.735       63
   34.750       52
   34.765       44
   34.780       56
   34.795       57
   34.810       60
   34.825       61
   34.840       53
   34.855       72
   34.870       78
   34.885       73
   34.900       73
   34.915       72
   34.930       68
   34.945       65
   34.960       63
   34.975       60
   34.990       57
   35.005       61
   35.020       61
   35.035       58
   35.050       58
   35.065       55
   35.080       43
   35.095       59
   35.110       63
   35.125       62
   35.140       64
   35.155       62
   35.170       62
   35.185       64
   35.200       66
   35.215       64
   35.230       64
   35.245       62
   35.260       62
   35.275       60
   35.290       58
   35.305       66
   35.320       68
   35.335       72
   35.350       71
   35.365       72
   35.380       71
   35.395       70
   35.410       78
   35.425       71
   35.440       76
   35.455       72
   35.470       70
   35.485       78
   35.500       85
   35.515       73
   35.530       77
   35.545       76
   35.560       76
   35.575       80
   35.590       69
   35.605       75
   35.620       84
   35.635       77
   35.650       88
   35.665       87
   35.680       77
   35.695       93
   35.710       76
   35.725       66
   35.740       80
   35.755       69
   35.770       70
   35.785       55
   35.800       68
   35.815       81
   35.830       67
   35.845       61
   35.860       57
   35.875       65
   35.890       59
   35.905       54
   35.920       50
   35.935       59
   35.950       63
   35.965       61
   35.980       47
   35.995       47
   36.010       57
   36.025       50
   36.040       55
   36.055       48
   36.070       57
   36.085       54
   36.100       69
   36.115       60
   36.130       45
   36.145       48
   36.160       53
   36.175       54
   36.190       53
   36.205       66
   36.220       54
   36.235       51
   36.250       48
   36.265       50
   36.280       49
   36.295       54
   36.310       51
   36.325       53
   36.340       58
   36.355       66
   36.370       62
   36.385       75
   36.400       68
   36.415       67
   36.430       63
   36.445       67
   36.460       66
   36.475       50
   36.490       52
   36.505       49
   36.520       45
   36.535       53
   36.550       59
   36.565       59
   36.580       53
   36.595       55
   36.610       42
   36.625       56
   36.640       64
   36.655       68
   36.670       59
   36.685       47
   36.700       52
   36.715       55
   36.730       40
   36.745       49
   36.760       50
   36.775       49
   36.790       61
   36.805       59
   36.820       49
   36.835       58
   36.850       58
   36.865       70
   36.880       70
   36.895       65
   36.910       59
   36.925       64
   36.940       61
   36.955       71
   36.970       56
   36.985       73
   37.000       54
   37.015       54
   37.030       55
   37.045       53
   37.060       57
   37.075       72
   37.090       56
   37.105       57
   37.120       68
   37.135       75
   37.150       54
   37.165       57
   37.180       66
   37.195       56
   37.210       57
   37.225       65
   37.240       76
   37.255       72
   37.270       52
   37.285       59
   37.300       70
   37.315       60
   37.330       67
   37.345       68
   37.360       62
   37.375       66
   37.390       86
   37.405       84
   37.420       68
   37.435       64
   37.450       63
   37.465       50
   37.480       53
   37.495       55
   37.510       61
   37.525       53
   37.540       47
   37.555       44
   37.570       41
   37.585       49
   37.600       47
   37.615       61
   37.630       62
   37.645       44
   37.660       49
   37.675       57
   37.690       51
   37.705       56
   37.720       45
   37.735       51
   37.750       58
   37.765       54
   37.780       73
   37.795       56
   37.810       53
   37.825       50
   37.840       54
   37.855       52
   37.870       51
   37.885       54
   37.900       57
   37.915       47
   37.930       55
   37.945       54
   37.960       58
   37.975       64
   37.990       59
   38.005       62
   38.020       52
   38.035       57
   38.050       65
   38.065       57
   38.080       47
   38.095       48
   38.110       46
   38.125       55
   38.140       56
   38.155       57
   38.170       56
   38.185       54
   38.200       55
   38.215       57
   38.230       51
   38.245       51
   38.260       51
   38.275       60
   38.290       49
   38.305       42
   38.320       48
   38.335       66
   38.350       64
   38.365       61
   38.380       65
   38.395       51
   38.410       53
   38.425       57
   38.440       62
   38.455       61
   38.470       69
   38.485       69
   38.500       67
   38.515       68
   38.530       58
   38.545       61
   38.560       55
   38.575       53
   38.590       52
   38.605       55
   38.620       44
   38.635       46
   38.650       47
   38.665       56
   38.680       51
   38.695       54
   38.710       49
   38.725       48
   38.740       49
   38.755       50
   38.770       48
   38.785       55
   38.800       53
   38.815       54
   38.830       67
   38.845       63
   38.860       55
   38.875       56
   38.890       64
   38.905       62
   38.920       55
   38.935       49
   38.950       63
   38.965       64
   38.980       53
   38.995       61
   39.010       57
   39.025       67
   39.040       57
   39.055       52
   39.070       54
   39.085       51
   39.100       46
   39.115       53
   39.130       56
   39.145       48
   39.160       51
   39.175       54
   39.190       56
   39.205       57
   39.220       65
   39.235       52
   39.250       60
   39.265       55
   39.280       62
   39.295       45
   39.310       50
   39.325       62
   39.340       49
   39.355       47
   39.370       51
   39.385       60
   39.400       61
   39.415       53
   39.430       44
   39.445       49
   39.460       31
   39.475       45
   39.490       49
   39.505       48
   39.520       55
   39.535       49
   39.550       52
   39.565       46
   39.580       44
   39.595       43
   39.610       50
   39.625       43
   39.640       36
   39.655       46
   39.670       45
   39.685       42
   39.700       40
   39.715       50
   39.730       52
   39.745       42
   39.760       53
   39.775       56
   39.790       46
   39.805       53
   39.820       51
   39.835       45
   39.850       52
   39.865       63
   39.880       66
   39.895       50
   39.910       65
   39.925       48
   39.940       45
   39.955       58
   39.970       54
   39.985       71
   40.000       52
   40.015       47
   40.030       57
   40.045       53
   40.060       60
   40.075       56
   40.090       56
   40.105       44
   40.120       49
   40.135       50
   40.150       40
   40.165       32
   40.180       44
   40.195       52
   40.210       43
   40.225       48
   40.240       43
   40.255       47
   40.270       67
   40.285       61
   40.300       52
   40.315       48
   40.330       57
   40.345       50
   40.360       50
   40.375       45
   40.390       43
   40.405       52
   40.420       54
   40.435       67
   40.450       63
   40.465       52
   40.480       44
   40.495       50
   40.510       49
   40.525       54
   40.540       54
   40.555       52
   40.570       49
   40.585       44
   40.600       53
   40.615       56
   40.630       53
   40.645       68
   40.660       52
   40.675       57
   40.690       51
   40.705       52
   40.720       47
   40.735       38
   40.750       40
   40.765       48
   40.780       45
   40.795       45
   40.810       55
   40.825       60
   40.840       49
   40.855       58
   40.870       56
   40.885       60
   40.900       66
   40.915       53
   40.930       43
   40.945       53
   40.960       53
   40.975       55
   40.990       51
   41.005       45
   41.020       40
   41.035       50
   41.050       42
   41.065       41
   41.080       43
   41.095       52
   41.110       46
   41.125       44
   41.140       44
   41.155       45
   41.170       50
   41.185       52
   41.200       42
   41.215       34
   41.230       46
   41.245       49
   41.260       49
   41.275       55
   41.290       47
   41.305       50
   41.320       47
   41.335       51
   41.350       48
   41.365       37
   41.380       41
   41.395       50
   41.410       50
   41.425       45
   41.440       43
   41.455       44
   41.470       46
   41.485       48
   41.500       44
   41.515       48
   41.530       44
   41.545       41
   41.560       41
   41.575       47
   41.590       42
   41.605       49
   41.620       64
   41.635       50
   41.650       47
   41.665       54
   41.680       48
   41.695       42
   41.710       59
   41.725       49
   41.740       52
   41.755       44
   41.770       53
   41.785       53
   41.800       51
   41.815       43
   41.830       44
   41.845       45
   41.860       49
   41.875       50
   41.890       47
   41.905       60
   41.920       53
   41.935       60
   41.950       48
   41.965       45
   41.980       55
   41.995       55
   42.010       54
   42.025       47
   42.040       50
   42.055       48
   42.070       39
   42.085       55
   42.100       39
   42.115       43
   42.130       49
   42.145       33
   42.160       40
   42.175       53
   42.190       47
   42.205       40
   42.220       38
   42.235       36
   42.250       47
   42.265       49
   42.280       51
   42.295       54
   42.310       45
   42.325       35
   42.340       49
   42.355       42
   42.370       38
   42.385       45
   42.400       44
   42.415       51
   42.430       50
   42.445       50
   42.460       53
   42.475       49
   42.490       55
   42.505       58
   42.520       61
   42.535       60
   42.550       55
   42.565       51
   42.580       43
   42.595       52
   42.610       43
   42.625       52
   42.640       59
   42.655       48
   42.670       49
   42.685       50
   42.700       34
   42.715       44
   42.730       44
   42.745       40
   42.760       39
   42.775       46
   42.790       55
   42.805       47
   42.820       54
   42.835       43
   42.850       45
   42.865       45
   42.880       40
   42.895       39
   42.910       41
   42.925       39
   42.940       52
   42.955       53
   42.970       46
   42.985       49
   43.000       47
   43.015       49
   43.030       41
   43.045       37
   43.060       48
   43.075       48
   43.090       39
   43.105       46
   43.120       44
   43.135       37
   43.150       41
   43.165       36
   43.180       34
   43.195       38
   43.210       40
   43.225       43
   43.240       30
   43.255       41
   43.270       42
   43.285       45
   43.300       49
   43.315       52
   43.330       41
   43.345       56
   43.360       51
   43.375       51
   43.390       55
   43.405       57
   43.420       58
   43.435       56
   43.450       39
   43.465       42
   43.480       39
   43.495       41
   43.510       44
   43.525       52
   43.540       45
   43.555       37
   43.570       38
   43.585       43
   43.600       42
   43.615       47
   43.630       40
   43.645       40
   43.660       39
   43.675       45
   43.690       54
   43.705       45
   43.720       43
   43.735       41
   43.750       50
   43.765       40
   43.780       46
   43.795       42
   43.810       44
   43.825       47
   43.840       47
   43.855       53
   43.870       37
   43.885       38
   43.900       41
   43.915       44
   43.930       44
   43.945       44
   43.960       46
   43.975       58
   43.990       47
   44.005       46
   44.020       41
   44.035       48
   44.050       56
   44.065       49
   44.080       53
   44.095       55
   44.110       50
   44.125       46
   44.140       39
   44.155       43
   44.170       48
   44.185       47
   44.200       42
   44.215       50
   44.230       45
   44.245       47
   44.260       46
   44.275       52
   44.290       46
   44.305       51
   44.320       46
   44.335       56
   44.350       55
   44.365       54
   44.380       50
   44.395       53
   44.410       59
   44.425       52
   44.440       46
   44.455       44
   44.470       49
   44.485       42
   44.500       45
   44.515       40
   44.530       44
   44.545       45
   44.560       42
   44.575       48
   44.590       47
   44.605       48
   44.620       48
   44.635       44
   44.650       49
   44.665       38
   44.680       53
   44.695       53
   44.710       49
   44.725       36
   44.740       50
   44.755       47
   44.770       43
   44.785       46
   44.800       41
   44.815       40
   44.830       46
   44.845       48
   44.860       44
   44.875       42
   44.890       53
   44.905       40
   44.920       52
   44.935       52
   44.950       48
   44.965       43
   44.980       53
   44.995       37
   45.010       56
   45.025       55
   45.040       45
   45.055       53
   45.070       49
   45.085       50
   45.100       47
   45.115       56
   45.130       60
   45.145       62
   45.160       56
   45.175       52
   45.190       48
   45.205       48
   45.220       46
   45.235       47
   45.250       49
   45.265       54
   45.280       49
   45.295       52
   45.310       49
   45.325       43
   45.340       51
   45.355       48
   45.370       40
   45.385       51
   45.400       48
   45.415       49
   45.430       51
   45.445       48
   45.460       47
   45.475       47
   45.490       41
   45.505       50
   45.520       52
   45.535       46
   45.550       44
   45.565       44
   45.580       46
   45.595       50
   45.610       52
   45.625       42
   45.640       59
   45.655       59
   45.670       59
   45.685       50
   45.700       47
   45.715       43
   45.730       45
   45.745       42
   45.760       46
   45.775       41
   45.790       45
   45.805       43
   45.820       51
   45.835       44
   45.850       41
   45.865       47
   45.880       49
   45.895       46
   45.910       50
   45.925       43
   45.940       50
   45.955       40
   45.970       38
   45.985       38
