    4.000       46
    4.015       56
    4.030       52
    4.045       44
    4.060       47
    4.075       42
    4.090       44
    4.105       47
    4.120       49
    4.135       44
    4.150       41
    4.165       28
    4.180       43
    4.195       40
    4.210       41
    4.225       45
    4.240       48
    4.255       53
    4.270       39
    4.285       42
    4.300       43
    4.315       52
    4.330       50
    4.345       53
    4.360       51
    4.375       50
    4.390       43
    4.405       43
    4.420       44
    4.435       47
    4.450       50
    4.465       43
    4.480       47
    4.495       39
    4.510       44
    4.525       40
    4.540       44
    4.555       50
    4.570       45
    4.585       44
    4.600       30
    4.615       34
    4.630       52
    4.645       39
    4.660       38
    4.675       46
    4.690       52
    4.705       47
    4.720       51
    4.735       44
    4.750       41
    4.765       35
    4.780       42
    4.795       39
    4.810       35
    4.825       48
    4.840       46
    4.855       46
    4.870       39
    4.885       43
    4.900       42
    4.915       41
    4.930       40
    4.945       45
    4.960       40
    4.975       34
    4.990       41
    5.005       41
    5.020       39
    5.035       47
    5.050       49
    5.065       38
    5.080       34
    5.095       43
    5.110       39
    5.125       42
    5.140       44
    5.155       38
    5.170       47
    5.185       44
    5.200       44
    5.215       34
    5.230       44
    5.245       37
    5.260       36
    5.275       41
    5.290       50
    5.305       45
    5.320       48
    5.335       43
    5.350       40
    5.365       38
    5.380       33
    5.395       39
    5.410       35
    5.425       35
    5.440       39
    5.455       37
    5.470       39
    5.485       35
    5.500       37
    5.515       41
    5.530       41
    5.545       40
    5.560       53
    5.575       43
    5.590       43
    5.605       39
    5.620       45
    5.635       36
    5.650       41
    5.665       37
    5.680       50
    5.695       44
    5.710       39
    5.725       38
    5.740       39
    5.755       41
    5.770       38
    5.785       45
    5.800       44
    5.815       46
    5.830       48
    5.845       43
    5.860       33
    5.875       43
    5.890       47
    5.905       40
    5.920       42
    5.935       40
    5.950       43
    5.965       45
    5.980       44
    5.995       45
    6.010       38
    6.025       34
    6.040       46
    6.055       43
    6.070       47
    6.085       40
    6.100       32
    6.115       41
    6.130       34
    6.145       41
    6.160       38
    6.175       50
    6.190       50
    6.205       51
    6.220       52
    6.235       56
    6.250       47
    6.265       63
    6.280       61
    6.295       51
    6.310       59
    6.325       62
    6.340       66
    6.355       86
    6.370       84
    6.385       82
    6.400       73
    6.415       89
    6.430       99
    6.445      107
    6.460      117
    6.475      131
    6.490      116
    6.505      141
    6.520      151
    6.535      151
    6.550      182
    6.565      186
    6.580      224
    6.595      242
    6.610      334
    6.625      397
    6.640      348
    6.655      313
    6.670      331
    6.685      272
    6.700      205
    6.715      122
    6.730       61
    6.745       56
    6.760       43
    6.775       49
    6.790       48
    6.805       50
    6.820       47
    6.835       56
    6.850       55
    6.865       45
    6.880       53
    6.895       44
    6.910       38
    6.925       43
    6.940       44
    6.955       49
    6.970       45
    6.985       44
    7.000       47
    7.015       53
    7.030       46
    7.045       47
    7.060       41
    7.075       50
    7.090       56
    7.105       63
    7.120       61
    7.135       55
    7.150       83
    7.165       80
    7.180       69
    7.195      105
    7.210      100
    7.225       61
    7.240       46
    7.255       53
    7.270       40
    7.285       54
    7.300       46
    7.315       39
    7.330       43
    7.345       36
    7.360       43
    7.375       40
    7.390       48
    7.405       48
    7.420       39
    7.435       52
    7.450       45
    7.465       45
    7.480       41
    7.495       43
    7.510       29
    7.525       39
    7.540       42
    7.555       44
    7.570       40
    7.585       41
    7.600       37
    7.615       41
    7.630       44
    7.645       45
    7.660       52
    7.675       46
    7.690       48
    7.705       55
    7.720       52
    7.735       41
    7.750       44
    7.765       40
    7.780       42
    7.795       49
    7.810       41
    7.825       43
    7.840       47
    7.855       42
    7.870       36
    7.885       39
    7.900       37
    7.915       37
    7.930       30
    7.945       39
    7.960       31
    7.975       40
    7.990       43
    8.005       42
    8.020       37
    8.035       39
    8.050       44
    8.065       42
    8.080       42
    8.095       49
    8.110       49
    8.125       34
    8.140       39
    8.155       44
    8.170       50
    8.185       41
    8.200       36
    8.215       38
    8.230       47
    8.245       41
    8.260       39
    8.275       50
    8.290       41
    8.305       34
    8.320       42
    8.335       51
    8.350       49
    8.365       46
    8.380       34
    8.395       38
    8.410       37
    8.425       34
    8.440       40
    8.455       41
    8.470       43
    8.485       45
    8.500       45
    8.515       45
    8.530       44
    8.545       47
    8.560       51
    8.575       61
    8.590       55
    8.605       45
    8.620       45
    8.635       45
    8.650       44
    8.665       37
    8.680       50
    8.695       38
    8.710       39
    8.725       35
    8.740       40
    8.755       43
    8.770       48
    8.785       45
    8.800       49
    8.815       46
    8.830       48
    8.845       42
    8.860       41
    8.875       48
    8.890       42
    8.905       36
    8.920       40
    8.935       46
    8.950       45
    8.965       41
    8.980       40
    8.995       33
    9.010       45
    9.025       43
    9.040       44
    9.055       38
    9.070       34
    9.085       44
    9.100       39
    9.115       44
    9.130       48
    9.145       46
    9.160       50
    9.175       37
    9.190       50
    9.205       51
    9.220       53
    9.235       42
    9.250       44
    9.265       50
    9.280       31
    9.295       45
    9.310       48
    9.325       54
    9.340       45
    9.355       47
    9.370       52
    9.385       56
    9.400       56
    9.415       48
    9.430       43
    9.445       52
    9.460       44
    9.475       40
    9.490       44
    9.505       47
    9.520       59
    9.535       57
    9.550       45
    9.565       38
    9.580       49
    9.595       46
    9.610       46
    9.625       36
    9.640       46
    9.655       48
    9.670       50
    9.685       54
    9.700       47
    9.715       52
    9.730       48
    9.745       46
    9.760       54
    9.775       50
    9.790       43
    9.805       51
    9.820       61
    9.835       50
    9.850       43
    9.865       52
    9.880       40
    9.895       40
    9.910       44
    9.925       44
    9.940       40
    9.955       36
    9.970       35
    9.985       42
   10.000       50
   10.015       44
   10.030       47
   10.045       52
   10.060       46
   10.075       41
   10.090       43
   10.105       43
   10.120       43
   10.135       48
   10.150       46
   10.165       46
   10.180       47
   10.195       48
   10.210       57
   10.225       48
   10.240       47
   10.255       43
   10.270       47
   10.285       50
   10.300       59
   10.315       54
   10.330       50
   10.345       38
   10.360       51
   10.375       43
   10.390       49
   10.405       50
   10.420       56
   10.435       62
   10.450       73
   10.465       69
   10.480       62
   10.495       65
   10.510       84
   10.525       78
   10.540       57
   10.555       51
   10.570       45
   10.585       38
   10.600       46
   10.615       42
   10.630       49
   10.645       60
   10.660       61
   10.675       68
   10.690       58
   10.705       69
   10.720       86
   10.735       94
   10.750       98
   10.765      117
   10.780      110
   10.795      133
   10.810      135
   10.825      145
   10.840      137
   10.855      167
   10.870      219
   10.885      243
   10.900      225
   10.915      173
   10.930      100
   10.945       82
   10.960       62
   10.975       66
   10.990       54
   11.005       52
   11.020       56
   11.035       42
   11.050       41
   11.065       41
   11.080       43
   11.095       48
   11.110       52
   11.125       56
   11.140       54
   11.155       46
   11.170       44
   11.185       59
   11.200       48
   11.215       60
   11.230       72
   11.245       72
   11.260       70
   11.275       87
   11.290       72
   11.305       68
   11.320       53
   11.335       50
   11.350       52
   11.365       59
   11.380       52
   11.395       50
   11.410       55
   11.425       58
   11.440       64
   11.455       62
   11.470       69
   11.485       64
   11.500       51
   11.515       38
   11.530       35
   11.545       34
   11.560       32
   11.575       46
   11.590       39
   11.605       33
   11.620       40
   11.635       48
   11.650       47
   11.665       45
   11.680       45
   11.695       40
   11.710       50
   11.725       48
   11.740       54
   11.755       59
   11.770       68
   11.785       57
   11.800       62
   11.815       79
   11.830       79
   11.845       82
   11.860       82
   11.875       67
   11.890       62
   11.905       79
   11.920       75
   11.935       66
   11.950       47
   11.965       50
   11.980       55
   11.995       70
   12.010       70
   12.025       73
   12.040       69
   12.055       44
   12.070       46
   12.085       42
   12.100       61
   12.115       58
   12.130       65
   12.145       45
   12.160       49
   12.175       56
   12.190       51
   12.205       53
   12.220       49
   12.235       40
   12.250       40
   12.265       42
   12.280       38
   12.295       36
   12.310       37
   12.325       42
   12.340       44
   12.355       48
   12.370       47
   12.385       46
   12.400       48
   12.415       43
   12.430       45
   12.445       41
   12.460       53
   12.475       57
   12.490       50
   12.505       47
   12.520       56
   12.535       52
   12.550       62
   12.565       55
   12.580       73
   12.595       75
   12.610       83
   12.625      102
   12.640      130
   12.655      135
   12.670      166
   12.685      194
   12.700      236
   12.715      264
   12.730      245
   12.745      218
   12.760      181
   12.775      176
   12.790      149
   12.805      146
   12.820      129
   12.835       94
   12.850       75
   12.865       58
   12.880       61
   12.895       62
   12.910       61
   12.925       58
   12.940       60
   12.955       61
   12.970       63
   12.985       81
   13.000       94
   13.015       85
   13.030      107
   13.045      135
   13.060      167
   13.075      214
   13.090      217
   13.105      195
   13.120      170
   13.135      151
   13.150      142
   13.165      140
   13.180      174
   13.195      237
   13.210      272
   13.225      286
   13.240      324
   13.255      386
   13.270      448
   13.285      539
   13.300      517
   13.315      432
   13.330      397
   13.345      461
   13.360      582
   13.375      803
   13.390      966
   13.405      867
   13.420      561
   13.435      328
   13.450      190
   13.465      126
   13.480      112
   13.495      108
   13.510      111
   13.525      113
   13.540      112
   13.555      125
   13.570      141
   13.585      171
   13.600      216
   13.615      258
   13.630      282
   13.645      278
   13.660      303
   13.675      267
   13.690      193
   13.705      132
   13.720       92
   13.735       76
   13.750       60
   13.765       70
   13.780       54
   13.795       53
   13.810       61
   13.825       72
   13.840       70
   13.855       70
   13.870       76
   13.885       75
   13.900       74
   13.915       76
   13.930       62
   13.945       54
   13.960       44
   13.975       43
   13.990       45
   14.005       45
   14.020       45
   14.035       50
   14.050       60
   14.065       52
   14.080       52
   14.095       60
   14.110       56
   14.125       49
   14.140       58
   14.155       64
   14.170       63
   14.185       62
   14.200       78
   14.215       83
   14.230       70
   14.245       77
   14.260       89
   14.275       97
   14.290      112
   14.305      123
   14.320      154
   14.335      189
   14.350      229
   14.365      231
   14.380      206
   14.395      166
   14.410      150
   14.425      156
   14.440      152
   14.455      169
   14.470      160
   14.485      143
   14.500      154
   14.515      154
   14.530      160
   14.545      201
   14.560      234
   14.575      272
   14.590      284
   14.605      245
   14.620      163
   14.635      100
   14.650       77
   14.665       74
   14.680       73
   14.695       54
   14.710       49
   14.725       53
   14.740       64
   14.755       68
   14.770       54
   14.785       62
   14.800       58
   14.815       39
   14.830       47
   14.845       56
   14.860       54
   14.875       59
   14.890       49
   14.905       57
   14.920       86
   14.935       72
   14.950       71
   14.965       79
   14.980       99
   14.995      107
   15.010      135
   15.025      140
   15.040      199
   15.055      207
   15.070      254
   15.085      329
   15.100      386
   15.115      416
   15.130      500
   15.145      601
   15.160      721
   15.175      776
   15.190      651
   15.205      438
   15.220      243
   15.235      173
   15.250      141
   15.265      124
   15.280      150
   15.295      156
   15.310      157
   15.325      155
   15.340      148
   15.355      166
   15.370      178
   15.385      207
   15.400      203
   15.415      200
   15.430      188
   15.445      158
   15.460      137
   15.475      143
   15.490      124
   15.505      107
   15.520      107
   15.535      115
   15.550      135
   15.565      131
   15.580      165
   15.595      226
   15.610      264
   15.625      300
   15.640      326
   15.655      390
   15.670      385
   15.685      335
   15.700      249
   15.715      204
   15.730      162
   15.745      157
   15.760      169
   15.775      178
   15.790      164
   15.805      164
   15.820      171
   15.835      199
   15.850      217
   15.865      226
   15.880      192
   15.895      161
   15.910      113
   15.925      101
   15.940       71
   15.955       74
   15.970       53
   15.985       53
   16.000       66
   16.015       59
   16.030       56
   16.045       69
   16.060       70
   16.075       68
   16.090       92
   16.105      108
   16.120      118
   16.135      151
   16.150      180
   16.165      204
   16.180      240
   16.195      254
   16.210      235
   16.225      251
   16.240      261
   16.255      227
   16.270      160
   16.285      137
   16.300       88
   16.315       90
   16.330       87
   16.345       90
   16.360      118
   16.375      143
   16.390      129
   16.405      147
   16.420      168
   16.435      174
   16.450      198
   16.465      245
   16.480      292
   16.495      369
   16.510      431
   16.525      451
   16.540      393
   16.555      330
   16.570      316
   16.585      274
   16.600      305
   16.615      330
   16.630      310
   16.645      285
   16.660      257
   16.675      218
   16.690      246
   16.705      246
   16.720      236
   16.735      210
   16.750      190
   16.765      237
   16.780      270
   16.795      293
   16.810      305
   16.825      278
   16.840      263
   16.855      271
   16.870      278
   16.885      249
   16.900      220
   16.915      175
   16.930      151
   16.945      105
   16.960       88
   16.975       99
   16.990       90
   17.005       93
   17.020      110
   17.035      117
   17.050      144
   17.065      167
   17.080      193
   17.095      240
   17.110      283
   17.125      264
   17.140      205
   17.155      162
   17.170      143
   17.185      144
   17.200      158
   17.215      188
   17.230      245
   17.245      286
   17.260      296
   17.275      353
   17.290      362
   17.305      352
   17.320      328
   17.335      288
   17.350      222
   17.365      154
   17.380      121
   17.395      119
   17.410      109
   17.425      101
   17.440      131
   17.455      112
   17.470       95
   17.485      105
   17.500      130
   17.515      118
   17.530      142
   17.545      171
   17.560      205
   17.575      218
   17.590      213
   17.605      171
   17.620      142
   17.635       91
   17.650       75
   17.665       85
   17.680       93
   17.695       88
   17.710      100
   17.725      107
   17.740      114
   17.755      130
   17.770      103
   17.785      112
   17.800       85
   17.815      101
   17.830       88
   17.845      114
   17.860       91
   17.875       96
   17.890       87
   17.905       98
   17.920       98
   17.935       85
   17.950       77
   17.965       60
   17.980       56
   17.995       61
   18.010       69
   18.025       63
   18.040       43
   18.055       53
   18.070       49
   18.085       57
   18.100       50
   18.115       58
   18.130       78
   18.145       66
   18.160       57
   18.175       64
   18.190       58
   18.205       60
   18.220       71
   18.235       77
   18.250       75
   18.265       79
   18.280       97
   18.295      105
   18.310      132
   18.325      155
   18.340      150
   18.355      187
   18.370      202
   18.385      247
   18.400      230
   18.415      217
   18.430      168
   18.445      116
   18.460       97
   18.475       71
   18.490       65
   18.505       62
   18.520       60
   18.535       75
   18.550       60
   18.565       62
   18.580       70
   18.595       78
   18.610       88
   18.625       97
   18.640      108
   18.655      151
   18.670      150
   18.685      132
   18.700      123
   18.715      118
   18.730      124
   18.745      143
   18.760      155
   18.775      148
   18.790      126
   18.805      105
   18.820       94
   18.835       80
   18.850       77
   18.865       84
   18.880       67
   18.895       60
   18.910       63
   18.925       78
   18.940       86
   18.955      105
   18.970      106
   18.985       95
   19.000       90
   19.015       72
   19.030       70
   19.045       77
   19.060      104
   19.075      102
   19.090       96
   19.105       87
   19.120       62
   19.135       64
   19.150       62
   19.165       64
   19.180       72
   19.195       58
   19.210       52
   19.225       62
   19.240       63
   19.255       61
   19.270       58
   19.285       54
   19.300       51
   19.315       49
   19.330       52
   19.345       64
   19.360       50
   19.375       56
   19.390       65
   19.405       59
   19.420       67
   19.435       67
   19.450       58
   19.465       74
   19.480       72
   19.495       60
   19.510       78
   19.525       82
   19.540       67
   19.555       84
   19.570       93
   19.585      109
   19.600      118
   19.615      111
   19.630      104
   19.645      103
   19.660      116
   19.675      118
   19.690      139
   19.705      155
   19.720      145
   19.735      155
   19.750      133
   19.765      118
   19.780      103
   19.795       74
   19.810       73
   19.825       75
   19.840       74
   19.855      106
   19.870      102
   19.885      119
   19.900      154
   19.915      199
   19.930      233
   19.945      287
   19.960      308
   19.975      440
   19.990      531
   20.005      486
   20.020      408
   20.035      324
   20.050      233
   20.065      224
   20.080      258
   20.095      270
   20.110      307
   20.125      291
   20.140      238
   20.155      205
   20.170      158
   20.185      134
   20.200      104
   20.215       75
   20.230       73
   20.245       71
   20.260       63
   20.275       76
   20.290       76
   20.305       89
   20.320       85
   20.335       87
   20.350       72
   20.365       58
   20.380       46
   20.395       59
   20.410       63
   20.425       65
   20.440       62
   20.455       67
   20.470       60
   20.485       61
   20.500       61
   20.515       65
   20.530       59
   20.545       56
   20.560       60
   20.575       51
   20.590       55
   20.605       69
   20.620       69
   20.635       72
   20.650       83
   20.665       91
   20.680       81
   20.695       74
   20.710       70
   20.725       67
   20.740       76
   20.755       96
   20.770       92
   20.785      101
   20.800      105
   20.815      106
   20.830      116
   20.845      116
   20.860      111
   20.875      134
   20.890      134
   20.905      123
   20.920      136
   20.935      138
   20.950      161
   20.965      173
   20.980      148
   20.995      126
   21.010       94
   21.025       69
   21.040       68
   21.055       66
   21.070       58
   21.085       66
   21.100       50
   21.115       60
   21.130       76
   21.145       61
   21.160       60
   21.175       60
   21.190       56
   21.205       53
   21.220       57
   21.235       57
   21.250       60
   21.265       70
   21.280       74
   21.295       91
   21.310       85
   21.325      104
   21.340       93
   21.355       83
   21.370       89
   21.385       85
   21.400       66
   21.415       73
   21.430       69
   21.445       62
   21.460       75
   21.475       67
   21.490       74
   21.505       71
   21.520       64
   21.535       51
   21.550       48
   21.565       53
   21.580       59
   21.595       67
   21.610       65
   21.625       94
   21.640       93
   21.655      111
   21.670      131
   21.685      138
   21.700      172
   21.715      162
   21.730      166
   21.745      136
   21.760      117
   21.775      119
   21.790      123
   21.805      134
   21.820      184
   21.835      209
   21.850      283
   21.865      355
   21.880      452
   21.895      432
   21.910      352
   21.925      282
   21.940      203
   21.955      126
   21.970      131
   21.985      115
   22.000      104
   22.015       91
   22.030       82
   22.045       84
   22.060       91
   22.075       76
   22.090       79
   22.105       54
   22.120       45
   22.135       50
   22.150       59
   22.165       44
   22.180       49
   22.195       52
   22.210       38
   22.225       47
   22.240       52
   22.255       43
   22.270       47
   22.285       62
   22.300       55
   22.315       59
   22.330       48
   22.345       60
   22.360       71
   22.375       72
   22.390       83
   22.405       83
   22.420       70
   22.435       80
   22.450       67
   22.465       93
   22.480      111
   22.495      113
   22.510       98
   22.525       78
   22.540       78
   22.555       73
   22.570       70
   22.585       69
   22.600       80
   22.615       78
   22.630       90
   22.645       77
   22.660       87
   22.675       88
   22.690      108
   22.705      101
   22.720      133
   22.735      143
   22.750      135
   22.765       92
   22.780       83
   22.795       80
   22.810       83
   22.825       89
   22.840       95
   22.855      108
   22.870      122
   22.885      134
   22.900      141
   22.915      138
   22.930      140
   22.945      140
   22.960      133
   22.975      110
   22.990       94
   23.005      103
   23.020       84
   23.035       73
   23.050       71
   23.065       71
   23.080       60
   23.095       55
   23.110       56
   23.125       62
   23.140       76
   23.155       68
   23.170       67
   23.185       74
   23.200       75
   23.215       73
   23.230       79
   23.245       95
   23.260      105
   23.275      112
   23.290      103
   23.305      103
   23.320       99
   23.335       71
   23.350       56
   23.365       49
   23.380       46
   23.395       49
   23.410       47
   23.425       55
   23.440       71
   23.455       69
   23.470       62
   23.485       62
   23.500       59
   23.515       60
   23.530       65
   23.545       63
   23.560       57
   23.575       49
   23.590       53
   23.605       52
   23.620       55
   23.635       54
   23.650       48
   23.665       60
   23.680       59
   23.695       51
   23.710       58
   23.725       63
   23.740       59
   23.755       61
   23.770       63
   23.785       69
   23.800       69
   23.815       68
   23.830       60
   23.845       65
   23.860       71
   23.875       56
   23.890       77
   23.905       70
   23.920       52
   23.935       79
   23.950       64
   23.965       63
   23.980       50
   23.995       57
   24.010       66
   24.025       68
   24.040       71
   24.055       79
   24.070       93
   24.085       96
   24.100       90
   24.115       86
   24.130       73
   24.145       59
   24.160       54
   24.175       52
   24.190       59
   24.205       55
   24.220       53
   24.235       53
   24.250       56
   24.265       58
   24.280       68
   24.295       65
   24.310       71
   24.325       88
   24.340       82
   24.355       75
   24.370       69
   24.385       60
   24.400       50
   24.415       52
   24.430       56
   24.445       45
   24.460       44
   24.475       39
   24.490       54
   24.505       52
   24.520       51
   24.535       58
   24.550       59
   24.565       50
   24.580       40
   24.595       53
   24.610       63
   24.625       64
   24.640       76
   24.655       84
   24.670       88
   24.685       92
   24.700       97
   24.715       91
   24.730      103
   24.745      107
   24.760       83
   24.775       80
   24.790       65
   24.805       60
   24.820       64
   24.835       61
   24.850       71
   24.865       63
   24.880       56
   24.895       61
   24.910       51
   24.925       52
   24.940       58
   24.955       59
   24.970       67
   24.985       54
   25.000       56
   25.015       68
   25.030       79
   25.045      102
   25.060      106
   25.075      103
   25.090       98
   25.105      111
   25.120       89
   25.135       71
   25.150       58
   25.165       59
   25.180       65
   25.195       67
   25.210       71
   25.225       68
   25.240       62
   25.255       72
   25.270       78
   25.285       86
   25.300       78
   25.315       75
   25.330       70
   25.345       63
   25.360       71
   25.375       46
   25.390       53
   25.405       52
   25.420       63
   25.435       63
   25.450       57
   25.465       63
   25.480       84
   25.495       88
   25.510       99
   25.525       95
   25.540       91
   25.555       71
   25.570       76
   25.585       69
   25.600       60
   25.615       62
   25.630       54
   25.645       63
   25.660       68
   25.675       82
   25.690       86
   25.705       98
   25.720       98
   25.735       98
   25.750      121
   25.765      140
   25.780      146
   25.795      129
   25.810      113
   25.825      103
   25.840       72
   25.855       79
   25.870       79
   25.885       71
   25.900       83
   25.915       91
   25.930       99
   25.945       94
   25.960      120
   25.975      140
   25.990      144
   26.005      127
   26.020      101
   26.035       92
   26.050       81
   26.065       81
   26.080       74
   26.095       75
   26.110       69
   26.125       61
   26.140       71
   26.155       71
   26.170       73
   26.185       65
   26.200       61
   26.215       66
   26.230       86
   26.245       90
   26.260       99
   26.275      111
   26.290      106
   26.305      112
   26.320       98
   26.335       73
   26.350       81
   26.365       85
   26.380       69
   26.395       53
   26.410       56
   26.425       63
   26.440       59
   26.455       91
   26.470       80
   26.485       72
   26.500       69
   26.515       66
   26.530       47
   26.545       53
   26.560       57
   26.575       50
   26.590       63
   26.605       52
   26.620       53
   26.635       60
   26.650       47
   26.665       52
   26.680       71
   26.695       65
   26.710       66
   26.725       61
   26.740       80
   26.755       88
   26.770       95
   26.785       77
   26.800       72
   26.815       67
   26.830       58
   26.845       57
   26.860       68
   26.875       67
   26.890       57
   26.905       77
   26.920       80
   26.935       83
   26.950       89
   26.965      115
   26.980      106
   26.995      121
   27.010      127
   27.025      125
   27.040      115
   27.055      124
   27.070      136
   27.085      133
   27.100      108
   27.115       83
   27.130       91
   27.145       78
   27.160       71
   27.175       57
   27.190       60
   27.205       60
   27.220       63
   27.235       60
   27.250       53
   27.265       57
   27.280       59
   27.295       77
   27.310       75
   27.325       77
   27.340       76
   27.355       72
   27.370       65
   27.385       60
   27.400       62
   27.415       61
   27.430       65
   27.445       71
   27.460       61
   27.475       75
   27.490       87
   27.505       90
   27.520       84
   27.535       81
   27.550       85
   27.565       91
   27.580       99
   27.595       88
   27.610       88
   27.625      113
   27.640      128
   27.655      140
   27.670      155
   27.685      158
   27.700      176
   27.715      200
   27.730      179
   27.745      147
   27.760      122
   27.775      120
   27.790       95
   27.805       97
   27.820       82
   27.835       87
   27.850       66
   27.865       76
   27.880       67
   27.895       67
   27.910       98
   27.925       92
   27.940       83
   27.955      101
   27.970       96
   27.985       95
   28.000      105
   28.015      107
   28.030       99
   28.045       77
   28.060       75
   28.075       69
   28.090       84
   28.105       84
   28.120       82
   28.135       81
   28.150       75
   28.165       83
   28.180       67
   28.195       68
   28.210       79
   28.225       70
   28.240       68
   28.255       68
   28.270       59
   28.285       59
   28.300       65
   28.315       77
   28.330       73
   28.345       91
   28.360       82
   28.375       84
   28.390       91
   28.405       89
   28.420       84
   28.435       79
   28.450       80
   28.465       81
   28.480       89
   28.495       99
   28.510      104
   28.525      100
   28.540       92
   28.555       89
   28.570       73
   28.585       68
   28.600       61
   28.615       58
   28.630       59
   28.645       63
   28.660       63
   28.675       60
   28.690       56
   28.705       59
   28.720       58
   28.735       73
   28.750       75
   28.765       80
   28.780       74
   28.795       76
   28.810       83
   28.825       80
   28.840       65
   28.855       59
   28.870       68
   28.885       75
   28.900       72
   28.915       75
   28.930       74
   28.945       90
   28.960       92
   28.975       93
   28.990       96
   29.005       97
   29.020       90
   29.035       82
   29.050       88
   29.065       91
   29.080       83
   29.095       89
   29.110       84
   29.125       89
   29.140       96
   29.155      101
   29.170      106
   29.185      102
   29.200       94
   29.215       93
   29.230       79
   29.245       85
   29.260       78
   29.275       74
   29.290       69
   29.305       84
   29.320       89
   29.335       66
   29.350       80
   29.365       87
   29.380       76
   29.395       70
   29.410       75
   29.425       58
   29.440       54
   29.455       74
   29.470       63
   29.485       60
   29.500       67
   29.515       57
   29.530       58
   29.545       51
   29.560       63
   29.575       68
   29.590       64
   29.605       61
   29.620       67
   29.635       74
   29.650       71
   29.665      104
   29.680       95
   29.695       93
   29.710       88
   29.725       92
   29.740       81
   29.755       83
   29.770       89
   29.785      115
   29.800       95
   29.815       97
   29.830       89
   29.845       92
   29.860       78
   29.875       83
   29.890       73
   29.905       81
   29.920       68
   29.935       63
   29.950       74
   29.965       56
   29.980       58
   29.995       61
   30.010       61
   30.025       59
   30.040       62
   30.055       67
   30.070       57
   30.085       61
   30.100       51
   30.115       50
   30.130       53
   30.145       58
   30.160       55
   30.175       67
   30.190       68
   30.205       47
   30.220       49
   30.235       61
   30.250       55
   30.265       57
   30.280       56
   30.295       60
   30.310       57
   30.325       51
   30.340       64
   30.355       69
   30.370       62
   30.385       67
   30.400       55
   30.415       77
   30.430       65
   30.445       68
   30.460       55
   30.475       54
   30.490       57
   30.505       75
   30.520       75
   30.535       72
   30.550       77
   30.565       86
   30.580       85
   30.595       73
   30.610       72
   30.625       84
   30.640       91
   30.655       95
   30.670       81
   30.685       78
   30.700       92
   30.715       99
   30.730       84
   30.745       84
   30.760       91
   30.775       81
   30.790       90
   30.805       79
   30.820       63
   30.835       69
   30.850       61
   30.865       69
   30.880       62
   30.895       70
   30.910       50
   30.925       65
   30.940       67
   30.955       56
   30.970       62
   30.985       73
   31.000       69
   31.015       71
   31.030       79
   31.045       80
   31.060       80
   31.075       80
   31.090       70
   31.105       86
   31.120       97
   31.135       86
   31.150       95
   31.165       90
   31.180       73
   31.195       87
   31.210       67
   31.225       60
   31.240       60
   31.255       59
   31.270       58
   31.285       69
   31.300       72
   31.315       60
   31.330       53
   31.345       65
   31.360       74
   31.375       66
   31.390       69
   31.405       77
   31.420       67
   31.435       83
   31.450       80
   31.465       74
   31.480       72
   31.495       74
   31.510       66
   31.525       66
   31.540       90
   31.555       96
   31.570       67
   31.585       60
   31.600       64
   31.615       64
   31.630       66
   31.645       81
   31.660       88
   31.675       84
   31.690       83
   31.705       80
   31.720      106
   31.735       86
   31.750       81
   31.765       80
   31.780       92
   31.795       95
   31.810       85
   31.825      103
   31.840      113
   31.855      106
   31.870      100
   31.885      104
   31.900       80
   31.915       82
   31.930       80
   31.945       69
   31.960       64
   31.975       69
   31.990       71
   32.005       81
   32.020       80
   32.035       87
   32.050       88
   32.065       77
   32.080       73
   32.095       85
   32.110       82
   32.125       68
   32.140       69
   32.155       69
   32.170       69
   32.185       67
   32.200       66
   32.215       85
   32.230       86
   32.245       70
   32.260       74
   32.275       78
   32.290       66
   32.305       66
   32.320       66
   32.335       75
   32.350       58
   32.365       63
   32.380       60
   32.395       63
   32.410       55
   32.425       64
   32.440       64
   32.455       50
   32.470       61
   32.485       73
   32.500       64
   32.515       66
   32.530       71
   32.545       64
   32.560       61
   32.575       43
   32.590       57
   32.605       59
   32.620       58
   32.635       54
   32.650       48
   32.665       64
   32.680       60
   32.695       47
   32.710       53
   32.725       62
   32.740       53
   32.755       48
   32.770       57
   32.785       57
   32.800       50
   32.815       52
   32.830       46
   32.845       46
   32.860       55
   32.875       53
   32.890       63
   32.905       49
   32.920       68
   32.935       60
   32.950       64
   32.965       61
   32.980       64
   32.995       60
   33.010       58
   33.025       89
   33.040       96
   33.055       93
   33.070       89
   33.085       85
   33.100       88
   33.115       71
   33.130       72
   33.145       67
   33.160       77
   33.175       71
   33.190       71
   33.205       61
   33.220       69
   33.235       61
   33.250       63
   33.265       66
   33.280       61
   33.295       50
   33.310       76
   33.325       66
   33.340       60
   33.355       57
   33.370       57
   33.385       61
   33.400       60
   33.415       55
   33.430       71
   33.445       70
   33.460       65
   33.475       61
   33.490       63
   33.505       66
   33.520       60
   33.535       75
   33.550       77
   33.565       92
   33.580       94
   33.595       85
   33.610      100
   33.625      109
   33.640       94
   33.655      103
   33.670       88
   33.685       89
   33.700       70
   33.715       76
   33.730       82
   33.745       83
   33.760       69
   33.775       69
   33.790       68
   33.805       78
   33.820       59
   33.835       81
   33.850       83
   33.865       64
   33.880       69
   33.895       70
   33.910       92
   33.925      101
   33.940       97
   33.955       91
   33.970       84
   33.985       76
   34.000       63
   34.015       74
   34.030       74
   34.045       80
   34.060       70
   34.075       76
   34.090       83
   34.105       72
   34.120       72
   34.135       71
   34.150       81
   34.165       84
   34.180       75
   34.195       87
   34.210       82
   34.225       82
   34.240       63
   34.255       58
   34.270       67
   34.285       61
   34.300       62
   34.315       58
   34.330       48
   34.345       50
   34.360       46
   34.375       56
   34.390       53
   34.405       54
   34.420       58
   34.435       52
   34.450       38
   34.465       50
   34.480       62
   34.495       54
   34.510       62
   34.525       56
   34.540       53
   34.555       69
   34.570       68
   34.585       67
   34.600       62
   34.615       81
   34.630       75
   34.645       61
   34.660       60
   34.675       71
   34.690       70
   34.705       58
   34.720       61
   34.735       53
   34.750       51
   34.765       40
   34.780       43
   34.795       52
   34.810       43
   34.825       42
   34.840       48
   34.855       53
   34.870       60
   34.885       63
   34.900       66
   34.915       71
   34.930       70
   34.945       63
   34.960       56
   34.975       59
   34.990       66
   35.005       56
   35.020       46
   35.035       46
   35.050       48
   35.065       57
   35.080       48
   35.095       57
   35.110       51
   35.125       54
   35.140       61
   35.155       54
   35.170       69
   35.185       74
   35.200       67
   35.215       63
   35.230       66
   35.245       62
   35.260       70
   35.275       61
   35.290       71
   35.305       66
   35.320       63
   35.335       55
   35.350       73
   35.365       68
   35.380       77
   35.395       69
   35.410       73
   35.425       83
   35.440       86
   35.455       78
   35.470       68
   35.485       75
   35.500       75
   35.515       82
   35.530       74
   35.545       76
   35.560       87
   35.575       82
   35.590       81
   35.605       86
   35.620       91
   35.635       76
   35.650       76
   35.665       77
   35.680       86
   35.695       91
   35.710       90
   35.725       65
   35.740       79
   35.755       77
   35.770       87
   35.785       87
   35.800       88
   35.815       79
   35.830       70
   35.845       64
   35.860       71
   35.875       57
   35.890       47
   35.905       63
   35.920       59
   35.935       54
   35.950       51
   35.965       52
   35.980       55
   35.995       56
   36.010       68
   36.025       50
   36.040       47
   36.055       59
   36.070       59
   36.085       46
   36.100       50
   36.115       54
   36.130       46
   36.145       61
   36.160       60
   36.175       53
   36.190       54
   36.205       60
   36.220       53
   36.235       57
   36.250       53
   36.265       48
   36.280       47
   36.295       45
   36.310       58
   36.325       48
   36.340       53
   36.355       55
   36.370       60
   36.385       74
   36.400       55
   36.415       56
   36.430       69
   36.445       68
   36.460       68
   36.475       59
   36.490       63
   36.505       67
   36.520       67
   36.535       69
   36.550       55
   36.565       49
   36.580       52
   36.595       51
   36.610       50
   36.625       51
   36.640       53
   36.655       49
   36.670       48
   36.685       61
   36.700       69
   36.715       66
   36.730       56
   36.745       48
   36.760       50
   36.775       49
   36.790       58
   36.805       57
   36.820       50
   36.835       59
   36.850       57
   36.865       59
   36.880       65
   36.895       74
   36.910       61
   36.925       69
   36.940       64
   36.955       67
   36.970       66
   36.985       61
   37.000       64
   37.015       56
   37.030       52
   37.045       55
   37.060       64
   37.075       47
   37.090       63
   37.105       51
   37.120       67
   37.135       52
   37.150       60
   37.165       61
   37.180       56
   37.195       63
   37.210       60
   37.225       54
   37.240       70
   37.255       69
   37.270       71
   37.285       62
   37.300       73
   37.315       51
   37.330       59
   37.345       63
   37.360       72
   37.375       76
   37.390       74
   37.405       75
   37.420       72
   37.435       66
   37.450       70
   37.465       61
   37.480       62
   37.495       47
   37.510       46
   37.525       52
   37.540       62
   37.555       47
   37.570       52
   37.585       46
   37.600       40
   37.615       41
   37.630       41
   37.645       52
   37.660       48
   37.675       45
   37.690       47
   37.705       50
   37.720       53
   37.735       54
   37.750       54
   37.765       50
   37.780       57
   37.795       49
   37.810       63
   37.825       53
   37.840       44
   37.855       48
   37.870       46
   37.885       61
   37.900       57
   37.915       57
   37.930       57
   37.945       56
   37.960       50
   37.975       52
   37.990       60
   38.005       55
   38.020       43
   38.035       43
   38.050       48
   38.065       60
   38.080       64
   38.095       58
   38.110       64
   38.125       66
   38.140       59
   38.155       59
   38.170       60
   38.185       61
   38.200       57
   38.215       56
   38.230       56
   38.245       56
   38.260       48
   38.275       51
   38.290       59
   38.305       60
   38.320       53
   38.335       58
   38.350       56
   38.365       46
   38.380       46
   38.395       47
   38.410       59
   38.425       55
   38.440       57
   38.455       52
   38.470       56
   38.485       72
   38.500       67
   38.515       67
   38.530       67
   38.545       71
   38.560       57
   38.575       56
   38.590       58
   38.605       52
   38.620       54
   38.635       53
   38.650       44
   38.665       50
   38.680       62
   38.695       54
   38.710       62
   38.725       54
   38.740       42
   38.755       52
   38.770       58
   38.785       62
   38.800       58
   38.815       56
   38.830       54
   38.845       62
   38.860       73
   38.875       49
   38.890       49
   38.905       48
   38.920       50
   38.935       54
   38.950       47
   38.965       45
   38.980       54
   38.995       60
   39.010       54
   39.025       52
   39.040       50
   39.055       61
   39.070       66
   39.085       58
   39.100       51
   39.115       61
   39.130       54
   39.145       52
   39.160       57
   39.175       52
   39.190       46
   39.205       56
   39.220       56
   39.235       50
   39.250       51
   39.265       53
   39.280       48
   39.295       50
   39.310       49
   39.325       53
   39.340       49
   39.355       55
   39.370       48
   39.385       35
   39.400       41
   39.415       46
   39.430       53
   39.445       52
   39.460       40
   39.475       51
   39.490       52
   39.505       44
   39.520       53
   39.535       56
   39.550       57
   39.565       58
   39.580       38
   39.595       37
   39.610       41
   39.625       35
   39.640       34
   39.655       44
   39.670       50
   39.685       55
   39.700       42
   39.715       43
   39.730       54
   39.745       58
   39.760       54
   39.775       50
   39.790       52
   39.805       49
   39.820       43
   39.835       59
   39.850       49
   39.865       51
   39.880       71
   39.895       65
   39.910       62
   39.925       53
   39.940       53
   39.955       59
   39.970       70
   39.985       56
   40.000       50
   40.015       55
   40.030       55
   40.045       58
   40.060       54
   40.075       59
   40.090       74
   40.105       51
   40.120       60
   40.135       46
   40.150       42
   40.165       52
   40.180       41
   40.195       42
   40.210       44
   40.225       52
   40.240       50
   40.255       48
   40.270       45
   40.285       47
   40.300       53
   40.315       49
   40.330       58
   40.345       65
   40.360       48
   40.375       56
   40.390       55
   40.405       46
   40.420       42
   40.435       52
   40.450       45
   40.465       52
   40.480       49
   40.495       51
   40.510       57
   40.525       61
   40.540       67
   40.555       65
   40.570       51
   40.585       49
   40.600       48
   40.615       57
   40.630       48
   40.645       57
   40.660       56
   40.675       54
   40.690       52
   40.705       59
   40.720       58
   40.735       55
   40.750       46
   40.765       44
   40.780       51
   40.795       45
   40.810       53
   40.825       37
   40.840       51
   40.855       54
   40.870       51
   40.885       55
   40.900       56
   40.915       50
   40.930       59
   40.945       50
   40.960       49
   40.975       42
   40.990       43
   41.005       51
   41.020       57
   41.035       49
   41.050       51
   41.065       48
   41.080       56
   41.095       48
   41.110       54
   41.125       55
   41.140       52
   41.155       48
   41.170       45
   41.185       44
   41.200       47
   41.215       52
   41.230       53
   41.245       49
   41.260       51
   41.275       42
   41.290       41
   41.305       52
   41.320       54
   41.335       54
   41.350       49
   41.365       44
   41.380       56
   41.395       54
   41.410       50
   41.425       52
   41.440       39
   41.455       46
   41.470       50
   41.485       45
   41.500       43
   41.515       46
   41.530       38
   41.545       36
   41.560       40
   41.575       45
   41.590       54
   41.605       46
   41.620       39
   41.635       54
   41.650       44
   41.665       44
   41.680       43
   41.695       39
   41.710       47
   41.725       44
   41.740       44
   41.755       40
   41.770       45
   41.785       46
   41.800       45
   41.815       48
   41.830       37
   41.845       47
   41.860       47
   41.875       47
   41.890       41
   41.905       61
   41.920       52
   41.935       48
   41.950       44
   41.965       46
   41.980       62
   41.995       58
   42.010       49
   42.025       54
   42.040       46
   42.055       46
   42.070       43
   42.085       45
   42.100       49
   42.115       49
   42.130       46
   42.145       42
   42.160       50
   42.175       54
   42.190       49
   42.205       48
   42.220       45
   42.235       40
   42.250       47
   42.265       49
   42.280       56
   42.295       59
   42.310       56
   42.325       59
   42.340       54
   42.355       39
   42.370       42
   42.385       54
   42.400       48
   42.415       43
   42.430       48
   42.445       43
   42.460       49
   42.475       53
   42.490       41
   42.505       55
   42.520       52
   42.535       52
   42.550       47
   42.565       54
   42.580       57
   42.595       59
   42.610       49
   42.625       46
   42.640       54
   42.655       53
   42.670       47
   42.685       45
   42.700       51
   42.715       52
   42.730       51
   42.745       42
   42.760       32
   42.775       31
   42.790       43
   42.805       47
   42.820       36
   42.835       41
   42.850       45
   42.865       40
   42.880       46
   42.895       38
   42.910       38
   42.925       46
   42.940       50
   42.955       48
   42.970       52
   42.985       48
   43.000       44
   43.015       54
   43.030       49
   43.045       48
   43.060       42
   43.075       39
   43.090       45
   43.105       48
   43.120       48
   43.135       37
   43.150       41
   43.165       46
   43.180       48
   43.195       48
   43.210       53
   43.225       50
   43.240       52
   43.255       45
   43.270       53
   43.285       41
   43.300       31
   43.315       40
   43.330       46
   43.345       34
   43.360       38
   43.375       53
   43.390       55
   43.405       41
   43.420       48
   43.435       45
   43.450       51
   43.465       52
   43.480       36
   43.495       47
   43.510       46
   43.525       43
   43.540       44
   43.555       31
   43.570       45
   43.585       46
   43.600       32
   43.615       45
   43.630       36
   43.645       45
   43.660       48
   43.675       47
   43.690       49
   43.705       51
   43.720       55
   43.735       55
   43.750       39
   43.765       44
   43.780       57
   43.795       50
   43.810       35
   43.825       43
   43.840       53
   43.855       54
   43.870       53
   43.885       45
   43.900       39
   43.915       36
   43.930       37
   43.945       37
   43.960       35
   43.975       30
   43.990       45
   44.005       46
   44.020       51
   44.035       37
   44.050       38
   44.065       41
   44.080       38
   44.095       43
   44.110       47
   44.125       46
   44.140       40
   44.155       45
   44.170       48
   44.185       56
   44.200       49
   44.215       45
   44.230       52
   44.245       33
   44.260       53
   44.275       46
   44.290       37
   44.305       42
   44.320       48
   44.335       48
   44.350       54
   44.365       46
   44.380       50
   44.395       52
   44.410       48
   44.425       45
   44.440       45
   44.455       47
   44.470       45
   44.485       56
   44.500       54
   44.515       49
   44.530       46
   44.545       52
   44.560       55
   44.575       43
   44.590       37
   44.605       43
   44.620       48
   44.635       43
   44.650       56
   44.665       53
   44.680       50
   44.695       40
   44.710       50
   44.725       48
   44.740       44
   44.755       42
   44.770       34
   44.785       42
   44.800       39
   44.815       55
   44.830       53
   44.845       43
   44.860       47
   44.875       42
   44.890       53
   44.905       45
   44.920       47
   44.935       52
   44.950       55
   44.965       58
   44.980       51
   44.995       69
   45.010       49
   45.025       49
   45.040       45
   45.055       51
   45.070       48
   45.085       42
   45.100       46
   45.115       45
   45.130       57
   45.145       53
   45.160       56
   45.175       58
   45.190       53
   45.205       51
   45.220       51
   45.235       57
   45.250       56
   45.265       53
   45.280       42
   45.295       56
   45.310       51
   45.325       45
   45.340       45
   45.355       53
   45.370       41
   45.385       42
   45.400       49
   45.415       45
   45.430       45
   45.445       42
   45.460       44
   45.475       46
   45.490       46
   45.505       43
   45.520       39
   45.535       38
   45.550       51
   45.565       57
   45.580       52
   45.595       48
   45.610       51
   45.625       47
   45.640       56
   45.655       50
   45.670       56
   45.685       47
   45.700       45
   45.715       53
   45.730       48
   45.745       47
   45.760       44
   45.775       63
   45.790       45
   45.805       44
   45.820       43
   45.835       47
   45.850       42
   45.865       39
   45.880       37
   45.895       38
   45.910       44
   45.925       39
   45.940       40
   45.955       44
   45.970       42
   45.985       41
