    4.000      230
    4.015      213
    4.030      209
    4.045      226
    4.060      205
    4.075      214
    4.090      231
    4.105      217
    4.120      212
    4.135      216
    4.150      228
    4.165      227
    4.180      215
    4.195      214
    4.210      187
    4.225      204
    4.240      201
    4.255      225
    4.270      224
    4.285      210
    4.300      190
    4.315      214
    4.330      206
    4.345      209
    4.360      209
    4.375      203
    4.390      228
    4.405      218
    4.420      222
    4.435      204
    4.450      217
    4.465      220
    4.480      192
    4.495      190
    4.510      192
    4.525      195
    4.540      216
    4.555      218
    4.570      203
    4.585      189
    4.600      191
    4.615      207
    4.630      198
    4.645      205
    4.660      187
    4.675      192
    4.690      200
    4.705      192
    4.720      208
    4.735      208
    4.750      197
    4.765      202
    4.780      204
    4.795      198
    4.810      204
    4.825      192
    4.840      206
    4.855      206
    4.870      186
    4.885      184
    4.900      166
    4.915      186
    4.930      209
    4.945      202
    4.960      203
    4.975      231
    4.990      212
    5.005      206
    5.020      194
    5.035      192
    5.050      194
    5.065      193
    5.080      197
    5.095      207
    5.110      219
    5.125      198
    5.140      207
    5.155      208
    5.170      207
    5.185      213
    5.200      198
    5.215      176
    5.230      180
    5.245      185
    5.260      193
    5.275      200
    5.290      189
    5.305      193
    5.320      207
    5.335      183
    5.350      195
    5.365      197
    5.380      185
    5.395      199
    5.410      190
    5.425      191
    5.440      206
    5.455      219
    5.470      216
    5.485      200
    5.500      205
    5.515      189
    5.530      198
    5.545      203
    5.560      194
    5.575      184
    5.590      208
    5.605      191
    5.620      196
    5.635      192
    5.650      216
    5.665      180
    5.680      181
    5.695      175
    5.710      196
    5.725      192
    5.740      185
    5.755      184
    5.770      181
    5.785      180
    5.800      197
    5.815      198
    5.830      190
    5.845      190
    5.860      183
    5.875      215
    5.890      209
    5.905      187
    5.920      201
    5.935      194
    5.950      184
    5.965      181
    5.980      204
    5.995      199
    6.010      221
    6.025      225
    6.040      202
    6.055      197
    6.070      191
    6.085      189
    6.100      195
    6.115      209
    6.130      180
    6.145      185
    6.160      214
    6.175      184
    6.190      194
    6.205      202
    6.220      202
    6.235      184
    6.250      208
    6.265      228
    6.280      217
    6.295      223
    6.310      231
    6.325      236
    6.340      245
    6.355      261
    6.370      256
    6.385      253
    6.400      258
    6.415      272
    6.430      289
    6.445      264
    6.460      322
    6.475      338
    6.490      325
    6.505      365
    6.520      429
    6.535      417
    6.550      441
    6.565      432
    6.580      417
    6.595      446
    6.610      439
    6.625      367
    6.640      273
    6.655      211
    6.670      192
    6.685      196
    6.700      214
    6.715      193
    6.730      178
    6.745      189
    6.760      188
    6.775      198
    6.790      194
    6.805      200
    6.820      187
    6.835      207
    6.850      198
    6.865      195
    6.880      180
    6.895      198
    6.910      201
    6.925      211
    6.940      222
    6.955      205
    6.970      179
    6.985      197
    7.000      231
    7.015      238
    7.030      216
    7.045      224
    7.060      238
    7.075      251
    7.090      282
    7.105      293
    7.120      323
    7.135      317
    7.150      262
    7.165      199
    7.180      174
    7.195      176
    7.210      185
    7.225      188
    7.240      179
    7.255      183
    7.270      191
    7.285      196
    7.300      196
    7.315      218
    7.330      198
    7.345      193
    7.360      186
    7.375      185
    7.390      180
    7.405      183
    7.420      197
    7.435      206
    7.450      188
    7.465      195
    7.480      204
    7.495      221
    7.510      220
    7.525      215
    7.540      229
    7.555      228
    7.570      224
    7.585      221
    7.600      238
    7.615      213
    7.630      208
    7.645      197
    7.660      178
    7.675      184
    7.690      194
    7.705      195
    7.720      186
    7.735      170
    7.750      181
    7.765      188
    7.780      176
    7.795      184
    7.810      189
    7.825      188
    7.840      179
    7.855      185
    7.870      183
    7.885      175
    7.900      185
    7.915      175
    7.930      190
    7.945      200
    7.960      204
    7.975      191
    7.990      185
    8.005      151
    8.020      171
    8.035      185
    8.050      182
    8.065      188
    8.080      183
    8.095      177
    8.110      161
    8.125      156
    8.140      175
    8.155      172
    8.170      185
    8.185      200
    8.200      187
    8.215      176
    8.230      182
    8.245      201
    8.260      184
    8.275      193
    8.290      218
    8.305      171
    8.320      169
    8.335      177
    8.350      178
    8.365      189
    8.380      185
    8.395      200
    8.410      195
    8.425      184
    8.440      195
    8.455      181
    8.470      197
    8.485      201
    8.500      198
    8.515      195
    8.530      198
    8.545      183
    8.560      187
    8.575      173
    8.590      178
    8.605      178
    8.620      177
    8.635      163
    8.650      178
    8.665      197
    8.680      195
    8.695      158
    8.710      175
    8.725      184
    8.740      195
    8.755      185
    8.770      169
    8.785      182
    8.800      186
    8.815      191
    8.830      181
    8.845      183
    8.860      195
    8.875      188
    8.890      198
    8.905      165
    8.920      182
    8.935      189
    8.950      177
    8.965      184
    8.980      180
    8.995      208
    9.010      182
    9.025      182
    9.040      183
    9.055      180
    9.070      198
    9.085      195
    9.100      197
    9.115      217
    9.130      214
    9.145      197
    9.160      216
    9.175      211
    9.190      209
    9.205      179
    9.220      189
    9.235      189
    9.250      183
    9.265      187
    9.280      192
    9.295      199
    9.310      202
    9.325      182
    9.340      191
    9.355      195
    9.370      194
    9.385      174
    9.400      193
    9.415      187
    9.430      194
    9.445      211
    9.460      198
    9.475      183
    9.490      190
    9.505      198
    9.520      182
    9.535      192
    9.550      191
    9.565      210
    9.580      226
    9.595      219
    9.610      224
    9.625      214
    9.640      210
    9.655      219
    9.670      238
    9.685      269
    9.700      281
    9.715      283
    9.730      256
    9.745      233
    9.760      219
    9.775      192
    9.790      183
    9.805      218
    9.820      211
    9.835      205
    9.850      221
    9.865      208
    9.880      183
    9.895      191
    9.910      201
    9.925      224
    9.940      173
    9.955      194
    9.970      175
    9.985      200
   10.000      194
   10.015      198
   10.030      191
   10.045      193
   10.060      193
   10.075      202
   10.090      191
   10.105      193
   10.120      207
   10.135      218
   10.150      191
   10.165      203
   10.180      234
   10.195      238
   10.210      230
   10.225      237
   10.240      243
   10.255      271
   10.270      278
   10.285      290
   10.300      283
   10.315      287
   10.330      342
   10.345      390
   10.360      429
   10.375      434
   10.390      393
   10.405      377
   10.420      375
   10.435      350
   10.450      295
   10.465      247
   10.480      212
   10.495      219
   10.510      189
   10.525      203
   10.540      191
   10.555      197
   10.570      191
   10.585      205
   10.600      202
   10.615      202
   10.630      204
   10.645      235
   10.660      226
   10.675      253
   10.690      248
   10.705      231
   10.720      245
   10.735      266
   10.750      302
   10.765      277
   10.780      239
   10.795      245
   10.810      222
   10.825      219
   10.840      219
   10.855      205
   10.870      190
   10.885      186
   10.900      202
   10.915      215
   10.930      209
   10.945      217
   10.960      222
   10.975      255
   10.990      250
   11.005      226
   11.020      238
   11.035      254
   11.050      275
   11.065      311
   11.080      336
   11.095      356
   11.110      356
   11.125      395
   11.140      398
   11.155      356
   11.170      282
   11.185      244
   11.200      240
   11.215      243
   11.230      241
   11.245      240
   11.260      252
   11.275      259
   11.290      252
   11.305      300
   11.320      268
   11.335      232
   11.350      210
   11.365      175
   11.380      186
   11.395      172
   11.410      188
   11.425      187
   11.440      162
   11.455      176
   11.470      179
   11.485      174
   11.500      168
   11.515      167
   11.530      164
   11.545      183
   11.560      178
   11.575      163
   11.590      187
   11.605      186
   11.620      181
   11.635      174
   11.650      185
   11.665      212
   11.680      209
   11.695      202
   11.710      241
   11.725      265
   11.740      285
   11.755      287
   11.770      301
   11.785      329
   11.800      308
   11.815      280
   11.830      247
   11.845      247
   11.860      214
   11.875      214
   11.890      210
   11.905      222
   11.920      251
   11.935      281
   11.950      250
   11.965      212
   11.980      204
   11.995      191
   12.010      181
   12.025      173
   12.040      194
   12.055      185
   12.070      188
   12.085      183
   12.100      165
   12.115      167
   12.130      167
   12.145      151
   12.160      162
   12.175      194
   12.190      176
   12.205      170
   12.220      193
   12.235      185
   12.250      189
   12.265      193
   12.280      182
   12.295      225
   12.310      240
   12.325      222
   12.340      247
   12.355      285
   12.370      334
   12.385      374
   12.400      423
   12.415      505
   12.430      568
   12.445      656
   12.460      744
   12.475      927
   12.490     1107
   12.505     1374
   12.520     1692
   12.535     2040
   12.550     2077
   12.565     1633
   12.580     1267
   12.595     1126
   12.610     1195
   12.625     1257
   12.640     1211
   12.655     1097
   12.670      895
   12.685      642
   12.700      411
   12.715      295
   12.730      262
   12.745      236
   12.760      230
   12.775      251
   12.790      259
   12.805      272
   12.820      274
   12.835      292
   12.850      299
   12.865      338
   12.880      424
   12.895      473
   12.910      565
   12.925      704
   12.940      799
   12.955      723
   12.970      586
   12.985      573
   13.000      601
   13.015      617
   13.030      736
   13.045      914
   13.060     1116
   13.075     1357
   13.090     1768
   13.105     2193
   13.120     2096
   13.135     1739
   13.150     1507
   13.165     1532
   13.180     1800
   13.195     2101
   13.210     2487
   13.225     3307
   13.240     3915
   13.255     3494
   13.270     2465
   13.285     1460
   13.300      761
   13.315      534
   13.330      437
   13.345      438
   13.360      393
   13.375      397
   13.390      473
   13.405      496
   13.420      534
   13.435      642
   13.450      777
   13.465      829
   13.480      828
   13.495      895
   13.510      873
   13.525      789
   13.540      558
   13.555      383
   13.570      269
   13.585      242
   13.600      232
   13.615      241
   13.630      249
   13.645      257
   13.660      272
   13.675      304
   13.690      343
   13.705      412
   13.720      493
   13.735      537
   13.750      503
   13.765      393
   13.780      275
   13.795      204
   13.810      181
   13.825      179
   13.840      181
   13.855      160
   13.870      140
   13.885      149
   13.900      156
   13.915      135
   13.930      156
   13.945      162
   13.960      139
   13.975      146
   13.990      179
   14.005      188
   14.020      170
   14.035      180
   14.050      190
   14.065      197
   14.080      211
   14.095      246
   14.110      243
   14.125      248
   14.140      332
   14.155      394
   14.170      471
   14.185      514
   14.200      499
   14.215      434
   14.230      396
   14.245      406
   14.260      480
   14.275      555
   14.290      592
   14.305      595
   14.320      653
   14.335      714
   14.350      783
   14.365      996
   14.380     1105
   14.395      961
   14.410      728
   14.425      478
   14.440      288
   14.455      210
   14.470      209
   14.485      178
   14.500      153
   14.515      157
   14.530      151
   14.545      140
   14.560      144
   14.575      165
   14.590      156
   14.605      154
   14.620      175
   14.635      147
   14.650      143
   14.665      154
   14.680      155
   14.695      169
   14.710      178
   14.725      161
   14.740      177
   14.755      201
   14.770      234
   14.785      264
   14.800      283
   14.815      316
   14.830      411
   14.845      490
   14.860      641
   14.875      726
   14.890      803
   14.905      820
   14.920      938
   14.935     1026
   14.950     1298
   14.965     1644
   14.980     1893
   14.995     1730
   15.010     1222
   15.025      769
   15.040      447
   15.055      350
   15.070      323
   15.085      281
   15.100      304
   15.115      314
   15.130      332
   15.145      391
   15.160      429
   15.175      486
   15.190      561
   15.205      571
   15.220      556
   15.235      508
   15.250      435
   15.265      433
   15.280      411
   15.295      386
   15.310      311
   15.325      271
   15.340      254
   15.355      267
   15.370      289
   15.385      326
   15.400      360
   15.415      406
   15.430      455
   15.445      535
   15.460      647
   15.475      741
   15.490      742
   15.505      653
   15.520      473
   15.535      353
   15.550      329
   15.565      329
   15.580      352
   15.595      417
   15.610      496
   15.625      549
   15.640      624
   15.655      669
   15.670      660
   15.685      612
   15.700      473
   15.715      336
   15.730      252
   15.745      216
   15.760      202
   15.775      174
   15.790      188
   15.805      174
   15.820      205
   15.835      236
   15.850      275
   15.865      271
   15.880      320
   15.895      355
   15.910      402
   15.925      446
   15.940      545
   15.955      620
   15.970      788
   15.985     1012
   16.000     1081
   16.015      988
   16.030      703
   16.045      443
   16.060      335
   16.075      314
   16.090      281
   16.105      304
   16.120      310
   16.135      367
   16.150      450
   16.165      515
   16.180      646
   16.195      660
   16.210      646
   16.225      591
   16.240      625
   16.255      788
   16.270      913
   16.285     1103
   16.300     1201
   16.315     1095
   16.330      867
   16.345      679
   16.360      645
   16.375      672
   16.390      777
   16.405      935
   16.420     1114
   16.435     1237
   16.450     1204
   16.465     1030
   16.480      819
   16.495      718
   16.510      703
   16.525      855
   16.540      956
   16.555     1180
   16.570     1322
   16.585     1277
   16.600     1075
   16.615      871
   16.630      804
   16.645      836
   16.660      889
   16.675      885
   16.690      893
   16.705      896
   16.720      752
   16.735      530
   16.750      424
   16.765      371
   16.780      320
   16.795      305
   16.810      304
   16.825      303
   16.840      349
   16.855      394
   16.870      441
   16.885      541
   16.900      621
   16.915      714
   16.930      663
   16.945      521
   16.960      411
   16.975      335
   16.990      336
   17.005      359
   17.020      334
   17.035      365
   17.050      391
   17.065      444
   17.080      513
   17.095      539
   17.110      589
   17.125      585
   17.140      526
   17.155      467
   17.170      399
   17.185      368
   17.200      358
   17.215      325
   17.230      336
   17.245      320
   17.260      354
   17.275      376
   17.290      443
   17.305      503
   17.320      624
   17.335      632
   17.350      560
   17.365      418
   17.380      310
   17.395      229
   17.410      174
   17.425      178
   17.440      159
   17.455      177
   17.470      201
   17.485      215
   17.500      255
   17.515      276
   17.530      287
   17.545      290
   17.560      349
   17.575      364
   17.590      374
   17.605      374
   17.620      403
   17.635      338
   17.650      276
   17.665      226
   17.680      203
   17.695      178
   17.710      174
   17.725      181
   17.740      151
   17.755      184
   17.770      144
   17.785      138
   17.800      138
   17.815      150
   17.830      126
   17.845      134
   17.860      135
   17.875      126
   17.890      100
   17.905      126
   17.920      129
   17.935      114
   17.950      133
   17.965      153
   17.980      160
   17.995      161
   18.010      161
   18.025      189
   18.040      205
   18.055      221
   18.070      254
   18.085      271
   18.100      329
   18.115      333
   18.130      360
   18.145      384
   18.160      406
   18.175      455
   18.190      380
   18.205      326
   18.220      240
   18.235      177
   18.250      161
   18.265      178
   18.280      176
   18.295      185
   18.310      216
   18.325      231
   18.340      234
   18.355      277
   18.370      320
   18.385      400
   18.400      498
   18.415      583
   18.430      578
   18.445      529
   18.460      483
   18.475      493
   18.490      553
   18.505      629
   18.520      712
   18.535      846
   18.550      869
   18.565      773
   18.580      622
   18.595      439
   18.610      329
   18.625      329
   18.640      265
   18.655      286
   18.670      304
   18.685      344
   18.700      341
   18.715      342
   18.730      412
   18.745      510
   18.760      542
   18.775      500
   18.790      458
   18.805      391
   18.820      375
   18.835      353
   18.850      310
   18.865      275
   18.880      191
   18.895      162
   18.910      156
   18.925      147
   18.940      131
   18.955      129
   18.970      128
   18.985      113
   19.000      126
   19.015      139
   19.030      124
   19.045      137
   19.060      141
   19.075      122
   19.090      133
   19.105      117
   19.120      112
   19.135      133
   19.150      128
   19.165      115
   19.180      109
   19.195      116
   19.210      120
   19.225      123
   19.240      119
   19.255      123
   19.270      142
   19.285      144
   19.300      157
   19.315      142
   19.330      162
   19.345      152
   19.360      203
   19.375      224
   19.390      255
   19.405      281
   19.420      329
   19.435      382
   19.450      420
   19.465      460
   19.480      458
   19.495      442
   19.510      406
   19.525      378
   19.540      310
   19.555      273
   19.570      278
   19.585      257
   19.600      291
   19.615      325
   19.630      402
   19.645      453
   19.660      572
   19.675      717
   19.690      893
   19.705     1094
   19.720     1278
   19.735     1332
   19.750     1141
   19.765      900
   19.780      744
   19.795      613
   19.810      656
   19.825      752
   19.840      831
   19.855      963
   19.870      885
   19.885      765
   19.900      664
   19.915      530
   19.930      494
   19.945      406
   19.960      317
   19.975      263
   19.990      245
   20.005      253
   20.020      269
   20.035      295
   20.050      330
   20.065      361
   20.080      357
   20.095      309
   20.110      262
   20.125      228
   20.140      172
   20.155      161
   20.170      148
   20.185      136
   20.200      120
   20.215      125
   20.230      137
   20.245      120
   20.260      124
   20.275      125
   20.290      114
   20.305      133
   20.320      151
   20.335      147
   20.350      167
   20.365      183
   20.380      182
   20.395      189
   20.410      217
   20.425      223
   20.440      204
   20.455      170
   20.470      165
   20.485      175
   20.500      193
   20.515      223
   20.530      223
   20.545      238
   20.560      318
   20.575      370
   20.590      404
   20.605      494
   20.620      491
   20.635      467
   20.650      465
   20.665      435
   20.680      475
   20.695      505
   20.710      508
   20.725      446
   20.740      330
   20.755      245
   20.770      213
   20.785      202
   20.800      210
   20.815      218
   20.830      214
   20.845      210
   20.860      194
   20.875      161
   20.890      169
   20.905      182
   20.920      208
   20.935      217
   20.950      229
   20.965      243
   20.980      211
   20.995      201
   21.010      193
   21.025      179
   21.040      203
   21.055      207
   21.070      219
   21.085      257
   21.100      208
   21.115      170
   21.130      148
   21.145      132
   21.160      134
   21.175      121
   21.190      123
   21.205      120
   21.220      134
   21.235      164
   21.250      164
   21.265      196
   21.280      205
   21.295      234
   21.310      278
   21.325      281
   21.340      317
   21.355      393
   21.370      504
   21.385      600
   21.400      676
   21.415      697
   21.430      653
   21.445      586
   21.460      514
   21.475      473
   21.490      519
   21.505      545
   21.520      599
   21.535      669
   21.550      806
   21.565      953
   21.580     1224
   21.595     1500
   21.610     1855
   21.625     1893
   21.640     1578
   21.655     1157
   21.670      772
   21.685      621
   21.700      569
   21.715      528
   21.730      591
   21.745      538
   21.760      441
   21.775      338
   21.790      273
   21.805      216
   21.820      162
   21.835      166
   21.850      147
   21.865      164
   21.880      157
   21.895      173
   21.910      175
   21.925      195
   21.940      207
   21.955      202
   21.970      193
   21.985      180
   22.000      207
   22.015      187
   22.030      190
   22.045      192
   22.060      205
   22.075      214
   22.090      222
   22.105      217
   22.120      214
   22.135      227
   22.150      240
   22.165      267
   22.180      295
   22.195      340
   22.210      367
   22.225      399
   22.240      377
   22.255      373
   22.270      292
   22.285      268
   22.300      242
   22.315      263
   22.330      309
   22.345      312
   22.360      366
   22.375      435
   22.390      545
   22.405      635
   22.420      650
   22.435      521
   22.450      420
   22.465      348
   22.480      287
   22.495      272
   22.510      288
   22.525      323
   22.540      355
   22.555      377
   22.570      403
   22.585      452
   22.600      550
   22.615      622
   22.630      626
   22.645      661
   22.660      633
   22.675      601
   22.690      545
   22.705      500
   22.720      497
   22.735      434
   22.750      402
   22.765      332
   22.780      293
   22.795      268
   22.810      274
   22.825      327
   22.840      388
   22.855      445
   22.870      416
   22.885      361
   22.900      328
   22.915      271
   22.930      259
   22.945      250
   22.960      285
   22.975      301
   22.990      326
   23.005      374
   23.020      344
   23.035      284
   23.050      250
   23.065      214
   23.080      193
   23.095      198
   23.110      174
   23.125      173
   23.140      190
   23.155      216
   23.170      243
   23.185      268
   23.200      319
   23.215      316
   23.230      312
   23.245      300
   23.260      234
   23.275      191
   23.290      164
   23.305      146
   23.320      130
   23.335      130
   23.350      138
   23.365      133
   23.380      138
   23.395      152
   23.410      143
   23.425      145
   23.440      147
   23.455      133
   23.470      129
   23.485      125
   23.500      125
   23.515      118
   23.530      136
   23.545      140
   23.560      150
   23.575      123
   23.590      143
   23.605      173
   23.620      204
   23.635      206
   23.650      173
   23.665      178
   23.680      188
   23.695      204
   23.710      189
   23.725      202
   23.740      218
   23.755      250
   23.770      300
   23.785      285
   23.800      316
   23.815      308
   23.830      273
   23.845      223
   23.860      176
   23.875      159
   23.890      153
   23.905      158
   23.920      161
   23.935      180
   23.950      200
   23.965      227
   23.980      277
   23.995      354
   24.010      392
   24.025      449
   24.040      450
   24.055      397
   24.070      338
   24.085      252
   24.100      205
   24.115      194
   24.130      209
   24.145      224
   24.160      221
   24.175      219
   24.190      223
   24.205      196
   24.220      216
   24.235      243
   24.250      239
   24.265      256
   24.280      239
   24.295      219
   24.310      212
   24.325      218
   24.340      182
   24.355      197
   24.370      173
   24.385      152
   24.400      163
   24.415      181
   24.430      197
   24.445      181
   24.460      185
   24.475      178
   24.490      160
   24.505      180
   24.520      171
   24.535      162
   24.550      153
   24.565      171
   24.580      153
   24.595      140
   24.610      133
   24.625      164
   24.640      179
   24.655      161
   24.670      185
   24.685      207
   24.700      260
   24.715      295
   24.730      307
   24.745      362
   24.760      347
   24.775      320
   24.790      303
   24.805      281
   24.820      280
   24.835      284
   24.850      308
   24.865      303
   24.880      280
   24.895      310
   24.910      329
   24.925      334
   24.940      369
   24.955      343
   24.970      317
   24.985      253
   25.000      208
   25.015      193
   25.030      190
   25.045      156
   25.060      160
   25.075      140
   25.090      158
   25.105      140
   25.120      146
   25.135      168
   25.150      190
   25.165      229
   25.180      256
   25.195      279
   25.210      279
   25.225      286
   25.240      293
   25.255      242
   25.270      226
   25.285      246
   25.300      241
   25.315      256
   25.330      274
   25.345      316
   25.360      355
   25.375      411
   25.390      437
   25.405      471
   25.420      501
   25.435      590
   25.450      615
   25.465      625
   25.480      595
   25.495      521
   25.510      418
   25.525      319
   25.540      255
   25.555      256
   25.570      239
   25.585      252
   25.600      280
   25.615      334
   25.630      347
   25.645      355
   25.660      360
   25.675      336
   25.690      326
   25.705      244
   25.720      215
   25.735      225
   25.750      202
   25.765      185
   25.780      192
   25.795      186
   25.810      195
   25.825      206
   25.840      223
   25.855      228
   25.870      261
   25.885      300
   25.900      310
   25.915      296
   25.930      269
   25.945      225
   25.960      206
   25.975      187
   25.990      177
   26.005      175
   26.020      168
   26.035      173
   26.050      164
   26.065      163
   26.080      180
   26.095      177
   26.110      167
   26.125      192
   26.140      182
   26.155      163
   26.170      139
   26.185      117
   26.200      120
   26.215      126
   26.230      134
   26.245      136
   26.260      116
   26.275      137
   26.290      139
   26.305      149
   26.320      180
   26.335      194
   26.350      206
   26.365      247
   26.380      278
   26.395      300
   26.410      301
   26.425      257
   26.440      209
   26.455      174
   26.470      164
   26.485      149
   26.500      128
   26.515      133
   26.530      153
   26.545      155
   26.560      177
   26.575      199
   26.590      218
   26.605      271
   26.620      309
   26.635      376
   26.650      439
   26.665      512
   26.680      607
   26.695      627
   26.710      574
   26.725      567
   26.740      547
   26.755      523
   26.770      468
   26.785      364
   26.800      309
   26.815      254
   26.830      225
   26.845      205
   26.860      173
   26.875      187
   26.890      197
   26.905      222
   26.920      225
   26.935      212
   26.950      204
   26.965      204
   26.980      194
   26.995      214
   27.010      188
   27.025      194
   27.040      171
   27.055      165
   27.070      164
   27.085      169
   27.100      176
   27.115      185
   27.130      192
   27.145      195
   27.160      210
   27.175      218
   27.190      226
   27.205      265
   27.220      325
   27.235      347
   27.250      399
   27.265      447
   27.280      413
   27.295      426
   27.310      428
   27.325      444
   27.340      411
   27.355      427
   27.370      436
   27.385      453
   27.400      502
   27.415      517
   27.430      501
   27.445      463
   27.460      379
   27.475      354
   27.490      303
   27.505      245
   27.520      241
   27.535      246
   27.550      249
   27.565      215
   27.580      257
   27.595      271
   27.610      283
   27.625      271
   27.640      282
   27.655      283
   27.670      237
   27.685      259
   27.700      241
   27.715      206
   27.730      162
   27.745      163
   27.760      155
   27.775      167
   27.790      146
   27.805      169
   27.820      198
   27.835      196
   27.850      226
   27.865      247
   27.880      280
   27.895      333
   27.910      330
   27.925      295
   27.940      262
   27.955      253
   27.970      255
   27.985      239
   28.000      236
   28.015      244
   28.030      235
   28.045      246
   28.060      289
   28.075      310
   28.090      297
   28.105      296
   28.120      271
   28.135      238
   28.150      226
   28.165      232
   28.180      206
   28.195      170
   28.210      174
   28.225      167
   28.240      155
   28.255      158
   28.270      140
   28.285      131
   28.300      139
   28.315      135
   28.330      141
   28.345      164
   28.360      183
   28.375      162
   28.390      173
   28.405      208
   28.420      221
   28.435      231
   28.450      238
   28.465      238
   28.480      222
   28.495      229
   28.510      216
   28.525      167
   28.540      188
   28.555      216
   28.570      207
   28.585      243
   28.600      283
   28.615      313
   28.630      318
   28.645      321
   28.660      305
   28.675      290
   28.690      286
   28.705      291
   28.720      297
   28.735      294
   28.750      268
   28.765      267
   28.780      253
   28.795      280
   28.810      288
   28.825      261
   28.840      266
   28.855      261
   28.870      237
   28.885      202
   28.900      203
   28.915      213
   28.930      202
   28.945      206
   28.960      232
   28.975      220
   28.990      204
   29.005      207
   29.020      209
   29.035      200
   29.050      180
   29.065      166
   29.080      163
   29.095      181
   29.110      159
   29.125      162
   29.140      177
   29.155      188
   29.170      198
   29.185      212
   29.200      204
   29.215      229
   29.230      239
   29.245      241
   29.260      242
   29.275      254
   29.290      260
   29.305      262
   29.320      295
   29.335      318
   29.350      323
   29.365      376
   29.380      423
   29.395      456
   29.410      426
   29.425      354
   29.440      313
   29.455      284
   29.470      255
   29.485      252
   29.500      237
   29.515      228
   29.530      235
   29.545      237
   29.560      217
   29.575      232
   29.590      222
   29.605      226
   29.620      243
   29.635      220
   29.650      193
   29.665      187
   29.680      181
   29.695      154
   29.710      145
   29.725      144
   29.740      163
   29.755      171
   29.770      192
   29.785      182
   29.800      198
   29.815      166
   29.830      216
   29.845      177
   29.860      192
   29.875      179
   29.890      159
   29.905      161
   29.920      171
   29.935      182
   29.950      161
   29.965      163
   29.980      162
   29.995      162
   30.010      165
   30.025      203
   30.040      187
   30.055      170
   30.070      168
   30.085      182
   30.100      174
   30.115      173
   30.130      177
   30.145      171
   30.160      186
   30.175      177
   30.190      176
   30.205      204
   30.220      212
   30.235      198
   30.250      228
   30.265      226
   30.280      239
   30.295      238
   30.310      239
   30.325      276
   30.340      281
   30.355      290
   30.370      270
   30.385      230
   30.400      181
   30.415      168
   30.430      153
   30.445      135
   30.460      135
   30.475      140
   30.490      143
   30.505      129
   30.520      133
   30.535      130
   30.550      153
   30.565      158
   30.580      163
   30.595      181
   30.610      185
   30.625      224
   30.640      244
   30.655      256
   30.670      281
   30.685      294
   30.700      310
   30.715      333
   30.730      334
   30.745      281
   30.760      264
   30.775      262
   30.790      213
   30.805      224
   30.820      238
   30.835      240
   30.850      242
   30.865      203
   30.880      221
   30.895      188
   30.910      202
   30.925      186
   30.940      183
   30.955      172
   30.970      178
   30.985      169
   31.000      172
   31.015      198
   31.030      237
   31.045      229
   31.060      258
   31.075      266
   31.090      248
   31.105      232
   31.120      232
   31.135      224
   31.150      204
   31.165      198
   31.180      203
   31.195      213
   31.210      202
   31.225      207
   31.240      252
   31.255      273
   31.270      320
   31.285      320
   31.300      308
   31.315      275
   31.330      261
   31.345      227
   31.360      237
   31.375      222
   31.390      234
   31.405      252
   31.420      251
   31.435      285
   31.450      285
   31.465      272
   31.480      274
   31.495      288
   31.510      266
   31.525      292
   31.540      323
   31.555      340
   31.570      378
   31.585      413
   31.600      421
   31.615      403
   31.630      366
   31.645      291
   31.660      256
   31.675      261
   31.690      250
   31.705      258
   31.720      261
   31.735      285
   31.750      278
   31.765      255
   31.780      285
   31.795      271
   31.810      264
   31.825      254
   31.840      258
   31.855      229
   31.870      217
   31.885      200
   31.900      186
   31.915      177
   31.930      160
   31.945      139
   31.960      149
   31.975      155
   31.990      145
   32.005      145
   32.020      156
   32.035      186
   32.050      193
   32.065      190
   32.080      189
   32.095      160
   32.110      168
   32.125      181
   32.140      172
   32.155      154
   32.170      156
   32.185      148
   32.200      140
   32.215      149
   32.230      129
   32.245      139
   32.260      152
   32.275      168
   32.290      136
   32.305      133
   32.320      139
   32.335      159
   32.350      143
   32.365      137
   32.380      140
   32.395      136
   32.410      158
   32.425      153
   32.440      148
   32.455      172
   32.470      158
   32.485      150
   32.500      141
   32.515      152
   32.530      151
   32.545      162
   32.560      178
   32.575      199
   32.590      207
   32.605      244
   32.620      295
   32.635      341
   32.650      378
   32.665      404
   32.680      427
   32.695      410
   32.710      382
   32.725      329
   32.740      295
   32.755      242
   32.770      222
   32.785      188
   32.800      164
   32.815      169
   32.830      174
   32.845      184
   32.860      177
   32.875      188
   32.890      182
   32.905      207
   32.920      199
   32.935      198
   32.950      172
   32.965      201
   32.980      204
   32.995      200
   33.010      204
   33.025      242
   33.040      238
   33.055      228
   33.070      237
   33.085      233
   33.100      236
   33.115      250
   33.130      299
   33.145      352
   33.160      358
   33.175      375
   33.190      355
   33.205      324
   33.220      322
   33.235      301
   33.250      319
   33.265      294
   33.280      303
   33.295      286
   33.310      277
   33.325      247
   33.340      218
   33.355      207
   33.370      209
   33.385      190
   33.400      197
   33.415      211
   33.430      214
   33.445      227
   33.460      247
   33.475      298
   33.490      336
   33.505      358
   33.520      358
   33.535      315
   33.550      300
   33.565      273
   33.580      243
   33.595      233
   33.610      248
   33.625      232
   33.640      241
   33.655      257
   33.670      268
   33.685      229
   33.700      254
   33.715      249
   33.730      238
   33.745      225
   33.760      207
   33.775      224
   33.790      212
   33.805      220
   33.820      186
   33.835      193
   33.850      193
   33.865      167
   33.880      168
   33.895      169
   33.910      167
   33.925      170
   33.940      140
   33.955      149
   33.970      152
   33.985      145
   34.000      143
   34.015      139
   34.030      142
   34.045      146
   34.060      161
   34.075      166
   34.090      187
   34.105      204
   34.120      216
   34.135      231
   34.150      276
   34.165      247
   34.180      262
   34.195      222
   34.210      221
   34.225      226
   34.240      219
   34.255      223
   34.270      219
   34.285      220
   34.300      174
   34.315      185
   34.330      161
   34.345      158
   34.360      164
   34.375      188
   34.390      187
   34.405      199
   34.420      203
   34.435      219
   34.450      208
   34.465      183
   34.480      183
   34.495      172
   34.510      157
   34.525      186
   34.540      224
   34.555      202
   34.570      180
   34.585      191
   34.600      207
   34.615      217
   34.630      198
   34.645      211
   34.660      216
   34.675      198
   34.690      202
   34.705      206
   34.720      200
   34.735      218
   34.750      209
   34.765      232
   34.780      251
   34.795      254
   34.810      229
   34.825      269
   34.840      260
   34.855      246
   34.870      233
   34.885      232
   34.900      234
   34.915      232
   34.930      252
   34.945      280
   34.960      309
   34.975      296
   34.990      353
   35.005      360
   35.020      337
   35.035      359
   35.050      372
   35.065      390
   35.080      394
   35.095      400
   35.110      417
   35.125      430
   35.140      422
   35.155      415
   35.170      385
   35.185      357
   35.200      363
   35.215      365
   35.230      387
   35.245      396
   35.260      413
   35.275      414
   35.290      383
   35.305      383
   35.320      366
   35.335      344
   35.350      330
   35.365      308
   35.380      282
   35.395      278
   35.410      239
   35.425      223
   35.440      202
   35.455      194
   35.470      181
   35.485      153
   35.500      153
   35.515      163
   35.530      139
   35.545      136
   35.560      117
   35.575      140
   35.590      178
   35.605      173
   35.620      159
   35.635      145
   35.650      143
   35.665      177
   35.680      165
   35.695      167
   35.710      159
   35.725      152
   35.740      143
   35.755      188
   35.770      174
   35.785      167
   35.800      145
   35.815      169
   35.830      150
   35.845      159
   35.860      179
   35.875      177
   35.890      183
   35.905      240
   35.920      251
   35.935      244
   35.950      239
   35.965      233
   35.980      199
   35.995      196
   36.010      172
   36.025      149
   36.040      154
   36.055      163
   36.070      151
   36.085      160
   36.100      161
   36.115      140
   36.130      125
   36.145      128
   36.160      138
   36.175      144
   36.190      134
   36.205      162
   36.220      187
   36.235      153
   36.250      139
   36.265      153
   36.280      144
   36.295      143
   36.310      162
   36.325      165
   36.340      152
   36.355      160
   36.370      174
   36.385      184
   36.400      197
   36.415      205
   36.430      188
   36.445      176
   36.460      181
   36.475      190
   36.490      169
   36.505      153
   36.520      173
   36.535      166
   36.550      157
   36.565      160
   36.580      169
   36.595      183
   36.610      174
   36.625      162
   36.640      153
   36.655      158
   36.670      176
   36.685      184
   36.700      172
   36.715      185
   36.730      199
   36.745      199
   36.760      198
   36.775      194
   36.790      197
   36.805      174
   36.820      158
   36.835      170
   36.850      168
   36.865      189
   36.880      196
   36.895      183
   36.910      182
   36.925      178
   36.940      215
   36.955      218
   36.970      241
   36.985      229
   37.000      197
   37.015      167
   37.030      139
   37.045      138
   37.060      127
   37.075      135
   37.090      140
   37.105      117
   37.120      137
   37.135      123
   37.150      133
   37.165      115
   37.180      136
   37.195      119
   37.210      140
   37.225      136
   37.240      125
   37.255      118
   37.270      121
   37.285      125
   37.300      127
   37.315      149
   37.330      137
   37.345      155
   37.360      153
   37.375      140
   37.390      141
   37.405      156
   37.420      167
   37.435      159
   37.450      174
   37.465      158
   37.480      188
   37.495      171
   37.510      159
   37.525      161
   37.540      179
   37.555      172
   37.570      178
   37.585      178
   37.600      188
   37.615      195
   37.630      204
   37.645      230
   37.660      227
   37.675      202
   37.690      167
   37.705      165
   37.720      126
   37.735      134
   37.750      133
   37.765      126
   37.780      141
   37.795      125
   37.810      127
   37.825      151
   37.840      147
   37.855      147
   37.870      134
   37.885      133
   37.900      147
   37.915      141
   37.930      144
   37.945      135
   37.960      158
   37.975      163
   37.990      170
   38.005      198
   38.020      214
   38.035      248
   38.050      275
   38.065      271
   38.080      249
   38.095      241
   38.110      229
   38.125      217
   38.140      202
   38.155      206
   38.170      179
   38.185      176
   38.200      182
   38.215      188
   38.230      176
   38.245      190
   38.260      190
   38.275      180
   38.290      180
   38.305      172
   38.320      157
   38.335      172
   38.350      180
   38.365      156
   38.380      161
   38.395      157
   38.410      167
   38.425      153
   38.440      165
   38.455      166
   38.470      165
   38.485      166
   38.500      182
   38.515      207
   38.530      190
   38.545      193
   38.560      212
   38.575      186
   38.590      178
   38.605      179
   38.620      186
   38.635      178
   38.650      195
   38.665      191
   38.680      190
   38.695      192
   38.710      185
   38.725      163
   38.740      176
   38.755      155
   38.770      150
   38.785      167
   38.800      145
   38.815      164
   38.830      165
   38.845      157
   38.860      147
   38.875      169
   38.890      135
   38.905      140
   38.920      150
   38.935      143
   38.950      162
   38.965      143
   38.980      141
   38.995      128
   39.010      111
   39.025      126
   39.040      125
   39.055      122
   39.070      135
   39.085      127
   39.100      131
   39.115      124
   39.130      130
   39.145      143
   39.160      126
   39.175      130
   39.190      128
   39.205      123
   39.220      134
   39.235      130
   39.250      123
   39.265      128
   39.280      134
   39.295      137
   39.310      144
   39.325      152
   39.340      151
   39.355      172
   39.370      160
   39.385      164
   39.400      158
   39.415      187
   39.430      188
   39.445      212
   39.460      216
   39.475      203
   39.490      200
   39.505      185
   39.520      179
   39.535      167
   39.550      150
   39.565      165
   39.580      129
   39.595      152
   39.610      147
   39.625      145
   39.640      125
   39.655      119
   39.670      150
   39.685      157
   39.700      149
   39.715      143
   39.730      147
   39.745      154
   39.760      142
   39.775      140
   39.790      128
   39.805      109
   39.820      116
   39.835      133
   39.850      134
   39.865      135
   39.880      148
   39.895      148
   39.910      155
   39.925      158
   39.940      179
   39.955      170
   39.970      175
   39.985      180
   40.000      211
   40.015      207
   40.030      193
   40.045      196
   40.060      219
   40.075      232
   40.090      245
   40.105      244
   40.120      259
   40.135      257
   40.150      238
   40.165      230
   40.180      225
   40.195      190
   40.210      167
   40.225      197
   40.240      181
   40.255      165
   40.270      173
   40.285      204
   40.300      174
   40.315      185
   40.330      186
   40.345      199
   40.360      229
   40.375      206
   40.390      242
   40.405      241
   40.420      242
   40.435      250
   40.450      264
   40.465      259
   40.480      255
   40.495      254
   40.510      228
   40.525      192
   40.540      183
   40.555      176
   40.570      170
   40.585      153
   40.600      144
   40.615      154
   40.630      123
   40.645      137
   40.660      145
   40.675      133
   40.690      148
   40.705      136
   40.720      135
   40.735      135
   40.750      135
   40.765      130
   40.780      122
   40.795      130
   40.810      142
   40.825      145
   40.840      146
   40.855      129
   40.870      126
   40.885      123
   40.900      124
   40.915      105
   40.930       99
   40.945      107
   40.960      117
   40.975      112
   40.990      110
   41.005      110
   41.020      108
   41.035      119
   41.050      117
   41.065      123
   41.080      137
   41.095      150
   41.110      131
   41.125      129
   41.140      137
   41.155      154
   41.170      140
   41.185      126
   41.200      153
   41.215      141
   41.230      135
   41.245      139
   41.260      144
   41.275      147
   41.290      157
   41.305      171
   41.320      168
   41.335      162
   41.350      159
   41.365      160
   41.380      149
   41.395      162
   41.410      158
   41.425      169
   41.440      149
   41.455      154
   41.470      163
   41.485      155
   41.500      145
   41.515      141
   41.530      148
   41.545      143
   41.560      141
   41.575      163
   41.590      163
   41.605      131
   41.620      154
   41.635      149
   41.650      177
   41.665      157
   41.680      154
   41.695      150
   41.710      158
   41.725      150
   41.740      156
   41.755      164
   41.770      181
   41.785      156
   41.800      161
   41.815      168
   41.830      153
   41.845      145
   41.860      156
   41.875      169
   41.890      161
   41.905      161
   41.920      176
   41.935      159
   41.950      176
   41.965      161
   41.980      162
   41.995      184
   42.010      157
   42.025      159
   42.040      160
   42.055      153
   42.070      153
   42.085      146
   42.100      134
   42.115      129
   42.130      139
   42.145      138
   42.160      131
   42.175      131
   42.190      129
   42.205      116
   42.220      120
   42.235      124
   42.250      134
   42.265      116
   42.280      135
   42.295      132
   42.310      133
   42.325      133
   42.340      139
   42.355      155
   42.370      147
   42.385      128
   42.400      158
   42.415      149
   42.430      148
   42.445      158
   42.460      136
   42.475      135
   42.490      114
   42.505      124
   42.520      128
   42.535      111
   42.550      127
   42.565      123
   42.580      125
   42.595      150
   42.610      162
   42.625      160
   42.640      159
   42.655      159
   42.670      163
   42.685      158
   42.700      138
   42.715      144
   42.730      179
   42.745      176
   42.760      160
   42.775      141
   42.790      158
   42.805      140
   42.820      139
   42.835      126
   42.850      131
   42.865      122
   42.880      130
   42.895      137
   42.910      129
   42.925      139
   42.940      127
   42.955      129
   42.970      134
   42.985      107
   43.000      120
   43.015      119
   43.030      126
   43.045      118
   43.060      134
   43.075      135
   43.090      124
   43.105      113
   43.120      141
   43.135      129
   43.150      119
   43.165      120
   43.180      118
   43.195      125
   43.210      129
   43.225      131
   43.240      133
   43.255      138
   43.270      136
   43.285      124
   43.300      137
   43.315      156
   43.330      150
   43.345      159
   43.360      139
   43.375      128
   43.390      141
   43.405      110
   43.420      138
   43.435      128
   43.450      146
   43.465      138
   43.480      146
   43.495      142
   43.510      129
   43.525      129
   43.540      136
   43.555      128
   43.570      132
   43.585      136
   43.600      130
   43.615      130
   43.630      154
   43.645      138
   43.660      138
   43.675      154
   43.690      163
   43.705      140
   43.720      153
   43.735      146
   43.750      156
   43.765      159
   43.780      186
   43.795      172
   43.810      178
   43.825      168
   43.840      159
   43.855      148
   43.870      159
   43.885      146
   43.900      139
   43.915      150
   43.930      139
   43.945      154
   43.960      152
   43.975      137
   43.990      142
   44.005      149
   44.020      160
   44.035      172
   44.050      175
   44.065      168
   44.080      183
   44.095      185
   44.110      173
   44.125      157
   44.140      149
   44.155      167
   44.170      153
   44.185      157
   44.200      154
   44.215      144
   44.230      149
   44.245      157
   44.260      161
   44.275      176
   44.290      196
   44.305      195
   44.320      195
   44.335      201
   44.350      188
   44.365      169
   44.380      152
   44.395      152
   44.410      145
   44.425      138
   44.440      134
   44.455      170
   44.470      159
   44.485      152
   44.500      147
   44.515      165
   44.530      180
   44.545      153
   44.560      177
   44.575      146
   44.590      186
   44.605      186
   44.620      202
   44.635      193
   44.650      217
   44.665      226
   44.680      208
   44.695      219
   44.710      215
   44.725      205
   44.740      200
   44.755      194
   44.770      203
   44.785      183
   44.800      196
   44.815      184
   44.830      169
   44.845      155
   44.860      153
   44.875      173
   44.890      171
   44.905      171
   44.920      165
   44.935      176
   44.950      148
   44.965      146
   44.980      147
   44.995      128
   45.010      151
   45.025      148
   45.040      167
   45.055      179
   45.070      168
   45.085      156
   45.100      133
   45.115      154
   45.130      161
   45.145      166
   45.160      159
   45.175      151
   45.190      166
   45.205      148
   45.220      148
   45.235      158
   45.250      149
   45.265      144
   45.280      147
   45.295      132
   45.310      132
   45.325      118
   45.340      110
   45.355      118
   45.370      111
   45.385      107
   45.400      108
   45.415      101
   45.430      122
   45.445      119
   45.460      121
   45.475      118
   45.490      125
   45.505      121
   45.520      117
   45.535      119
   45.550      135
   45.565      154
   45.580      156
   45.595      134
   45.610      151
   45.625      148
   45.640      148
   45.655      135
   45.670      151
   45.685      155
   45.700      166
   45.715      197
   45.730      171
   45.745      192
   45.760      192
   45.775      185
   45.790      197
   45.805      180
   45.820      150
   45.835      149
   45.850      168
   45.865      133
   45.880      143
   45.895      137
   45.910      121
   45.925      158
   45.940      143
   45.955      129
   45.970      137
   45.985      155
