    4.000      223
    4.015      202
    4.030      199
    4.045      206
    4.060      201
    4.075      187
    4.090      195
    4.105      171
    4.120      196
    4.135      195
    4.150      204
    4.165      191
    4.180      181
    4.195      203
    4.210      203
    4.225      210
    4.240      190
    4.255      190
    4.270      199
    4.285      198
    4.300      197
    4.315      204
    4.330      203
    4.345      188
    4.360      176
    4.375      201
    4.390      188
    4.405      190
    4.420      197
    4.435      203
    4.450      189
    4.465      180
    4.480      193
    4.495      196
    4.510      195
    4.525      189
    4.540      181
    4.555      195
    4.570      195
    4.585      201
    4.600      200
    4.615      201
    4.630      208
    4.645      197
    4.660      176
    4.675      188
    4.690      204
    4.705      183
    4.720      207
    4.735      190
    4.750      193
    4.765      178
    4.780      182
    4.795      179
    4.810      200
    4.825      196
    4.840      198
    4.855      205
    4.870      208
    4.885      198
    4.900      192
    4.915      197
    4.930      188
    4.945      167
    4.960      185
    4.975      191
    4.990      175
    5.005      181
    5.020      183
    5.035      179
    5.050      172
    5.065      165
    5.080      176
    5.095      189
    5.110      197
    5.125      189
    5.140      172
    5.155      190
    5.170      183
    5.185      186
    5.200      191
    5.215      168
    5.230      181
    5.245      178
    5.260      187
    5.275      198
    5.290      197
    5.305      191
    5.320      196
    5.335      187
    5.350      181
    5.365      178
    5.380      176
    5.395      155
    5.410      163
    5.425      196
    5.440      198
    5.455      208
    5.470      191
    5.485      182
    5.500      175
    5.515      173
    5.530      188
    5.545      193
    5.560      193
    5.575      177
    5.590      186
    5.605      170
    5.620      192
    5.635      187
    5.650      165
    5.665      181
    5.680      188
    5.695      183
    5.710      186
    5.725      186
    5.740      164
    5.755      181
    5.770      170
    5.785      172
    5.800      196
    5.815      185
    5.830      180
    5.845      190
    5.860      165
    5.875      194
    5.890      190
    5.905      178
    5.920      182
    5.935      168
    5.950      196
    5.965      183
    5.980      188
    5.995      176
    6.010      167
    6.025      166
    6.040      169
    6.055      186
    6.070      181
    6.085      201
    6.100      183
    6.115      200
    6.130      192
    6.145      176
    6.160      178
    6.175      202
    6.190      188
    6.205      189
    6.220      188
    6.235      177
    6.250      188
    6.265      204
    6.280      229
    6.295      217
    6.310      219
    6.325      253
    6.340      240
    6.355      246
    6.370      263
    6.385      247
    6.400      232
    6.415      259
    6.430      281
    6.445      292
    6.460      301
    6.475      326
    6.490      363
    6.505      381
    6.520      427
    6.535      428
    6.550      419
    6.565      469
    6.580      393
    6.595      269
    6.610      209
    6.625      195
    6.640      170
    6.655      186
    6.670      204
    6.685      179
    6.700      187
    6.715      183
    6.730      185
    6.745      163
    6.760      180
    6.775      171
    6.790      166
    6.805      193
    6.820      196
    6.835      191
    6.850      199
    6.865      185
    6.880      196
    6.895      190
    6.910      186
    6.925      187
    6.940      201
    6.955      199
    6.970      218
    6.985      211
    7.000      207
    7.015      202
    7.030      203
    7.045      260
    7.060      259
    7.075      282
    7.090      274
    7.105      239
    7.120      206
    7.135      197
    7.150      169
    7.165      155
    7.180      180
    7.195      181
    7.210      171
    7.225      155
    7.240      163
    7.255      187
    7.270      178
    7.285      175
    7.300      177
    7.315      178
    7.330      188
    7.345      186
    7.360      193
    7.375      197
    7.390      180
    7.405      181
    7.420      184
    7.435      193
    7.450      182
    7.465      175
    7.480      203
    7.495      218
    7.510      205
    7.525      243
    7.540      241
    7.555      252
    7.570      223
    7.585      195
    7.600      176
    7.615      176
    7.630      160
    7.645      189
    7.660      168
    7.675      154
    7.690      169
    7.705      181
    7.720      175
    7.735      160
    7.750      174
    7.765      190
    7.780      177
    7.795      168
    7.810      181
    7.825      196
    7.840      185
    7.855      186
    7.870      170
    7.885      160
    7.900      167
    7.915      174
    7.930      158
    7.945      179
    7.960      189
    7.975      194
    7.990      187
    8.005      188
    8.020      197
    8.035      196
    8.050      191
    8.065      183
    8.080      193
    8.095      185
    8.110      169
    8.125      181
    8.140      164
    8.155      190
    8.170      197
    8.185      163
    8.200      146
    8.215      167
    8.230      169
    8.245      162
    8.260      196
    8.275      198
    8.290      195
    8.305      184
    8.320      187
    8.335      178
    8.350      192
    8.365      186
    8.380      183
    8.395      206
    8.410      191
    8.425      178
    8.440      187
    8.455      201
    8.470      183
    8.485      180
    8.500      166
    8.515      193
    8.530      190
    8.545      189
    8.560      177
    8.575      173
    8.590      197
    8.605      181
    8.620      166
    8.635      189
    8.650      196
    8.665      172
    8.680      175
    8.695      172
    8.710      192
    8.725      193
    8.740      182
    8.755      178
    8.770      181
    8.785      180
    8.800      175
    8.815      181
    8.830      225
    8.845      181
    8.860      210
    8.875      206
    8.890      196
    8.905      206
    8.920      180
    8.935      176
    8.950      189
    8.965      206
    8.980      180
    8.995      198
    9.010      195
    9.025      181
    9.040      174
    9.055      211
    9.070      206
    9.085      185
    9.100      194
    9.115      182
    9.130      196
    9.145      199
    9.160      191
    9.175      183
    9.190      185
    9.205      200
    9.220      205
    9.235      199
    9.250      205
    9.265      202
    9.280      204
    9.295      193
    9.310      207
    9.325      185
    9.340      159
    9.355      195
    9.370      181
    9.385      190
    9.400      177
    9.415      188
    9.430      184
    9.445      200
    9.460      193
    9.475      178
    9.490      199
    9.505      202
    9.520      205
    9.535      184
    9.550      201
    9.565      180
    9.580      173
    9.595      216
    9.610      229
    9.625      209
    9.640      208
    9.655      225
    9.670      226
    9.685      231
    9.700      223
    9.715      197
    9.730      204
    9.745      216
    9.760      196
    9.775      202
    9.790      202
    9.805      209
    9.820      189
    9.835      191
    9.850      219
    9.865      198
    9.880      185
    9.895      188
    9.910      188
    9.925      205
    9.940      201
    9.955      197
    9.970      181
    9.985      194
   10.000      186
   10.015      214
   10.030      220
   10.045      201
   10.060      177
   10.075      219
   10.090      206
   10.105      217
   10.120      202
   10.135      216
   10.150      223
   10.165      202
   10.180      231
   10.195      237
   10.210      224
   10.225      229
   10.240      224
   10.255      269
   10.270      273
   10.285      300
   10.300      302
   10.315      377
   10.330      329
   10.345      324
   10.360      272
   10.375      243
   10.390      203
   10.405      188
   10.420      181
   10.435      199
   10.450      215
   10.465      223
   10.480      221
   10.495      214
   10.510      199
   10.525      191
   10.540      204
   10.555      172
   10.570      192
   10.585      207
   10.600      211
   10.615      186
   10.630      217
   10.645      222
   10.660      236
   10.675      234
   10.690      261
   10.705      251
   10.720      269
   10.735      225
   10.750      203
   10.765      200
   10.780      198
   10.795      189
   10.810      193
   10.825      199
   10.840      191
   10.855      178
   10.870      196
   10.885      222
   10.900      215
   10.915      203
   10.930      213
   10.945      227
   10.960      223
   10.975      230
   10.990      221
   11.005      253
   11.020      299
   11.035      327
   11.050      350
   11.065      373
   11.080      371
   11.095      321
   11.110      269
   11.125      250
   11.140      229
   11.155      221
   11.170      216
   11.185      207
   11.200      220
   11.215      223
   11.230      218
   11.245      231
   11.260      261
   11.275      268
   11.290      277
   11.305      265
   11.320      209
   11.335      209
   11.350      189
   11.365      203
   11.380      195
   11.395      213
   11.410      202
   11.425      176
   11.440      189
   11.455      202
   11.470      191
   11.485      184
   11.500      209
   11.515      192
   11.530      211
   11.545      218
   11.560      210
   11.575      212
   11.590      229
   11.605      214
   11.620      235
   11.635      223
   11.650      241
   11.665      261
   11.680      296
   11.695      294
   11.710      288
   11.725      288
   11.740      247
   11.755      233
   11.770      219
   11.785      239
   11.800      219
   11.815      217
   11.830      227
   11.845      236
   11.860      231
   11.875      259
   11.890      275
   11.905      253
   11.920      252
   11.935      243
   11.950      221
   11.965      211
   11.980      199
   11.995      224
   12.010      216
   12.025      209
   12.040      219
   12.055      194
   12.070      207
   12.085      217
   12.100      189
   12.115      208
   12.130      185
   12.145      205
   12.160      210
   12.175      190
   12.190      195
   12.205      201
   12.220      203
   12.235      210
   12.250      219
   12.265      253
   12.280      246
   12.295      291
   12.310      291
   12.325      317
   12.340      340
   12.355      382
   12.370      453
   12.385      559
   12.400      602
   12.415      732
   12.430      876
   12.445     1134
   12.460     1329
   12.475     1558
   12.490     1935
   12.505     1978
   12.520     1678
   12.535     1429
   12.550     1351
   12.565     1439
   12.580     1391
   12.595     1249
   12.610      919
   12.625      604
   12.640      399
   12.655      329
   12.670      301
   12.685      273
   12.700      280
   12.715      277
   12.730      279
   12.745      293
   12.760      292
   12.775      303
   12.790      314
   12.805      337
   12.820      385
   12.835      429
   12.850      535
   12.865      623
   12.880      645
   12.895      601
   12.910      528
   12.925      517
   12.940      528
   12.955      590
   12.970      715
   12.985      842
   13.000      986
   13.015     1311
   13.030     1573
   13.045     2060
   13.060     2406
   13.075     2173
   13.090     1842
   13.105     1795
   13.120     1916
   13.135     2187
   13.150     2763
   13.165     3557
   13.180     3573
   13.195     2477
   13.210     1447
   13.225      765
   13.240      520
   13.255      472
   13.270      401
   13.285      389
   13.300      417
   13.315      448
   13.330      489
   13.345      539
   13.360      624
   13.375      738
   13.390      799
   13.405      866
   13.420      886
   13.435      893
   13.450      810
   13.465      559
   13.480      409
   13.495      326
   13.510      286
   13.525      287
   13.540      290
   13.555      295
   13.570      286
   13.585      285
   13.600      281
   13.615      295
   13.630      350
   13.645      385
   13.660      462
   13.675      505
   13.690      460
   13.705      346
   13.720      273
   13.735      245
   13.750      215
   13.765      219
   13.780      205
   13.795      219
   13.810      199
   13.825      210
   13.840      218
   13.855      199
   13.870      200
   13.885      195
   13.900      206
   13.915      222
   13.930      199
   13.945      193
   13.960      224
   13.975      225
   13.990      250
   14.005      237
   14.020      259
   14.035      273
   14.050      276
   14.065      280
   14.080      323
   14.095      371
   14.110      444
   14.125      503
   14.140      515
   14.155      435
   14.170      440
   14.185      444
   14.200      464
   14.215      482
   14.230      479
   14.245      456
   14.260      451
   14.275      472
   14.290      558
   14.305      663
   14.320      850
   14.335      911
   14.350      883
   14.365      661
   14.380      444
   14.395      324
   14.410      262
   14.425      234
   14.440      218
   14.455      224
   14.470      226
   14.485      206
   14.500      226
   14.515      202
   14.530      218
   14.545      223
   14.560      210
   14.575      209
   14.590      187
   14.605      208
   14.620      216
   14.635      197
   14.650      220
   14.665      246
   14.680      242
   14.695      247
   14.710      276
   14.725      309
   14.740      340
   14.755      372
   14.770      396
   14.785      520
   14.800      603
   14.815      705
   14.830      816
   14.845      924
   14.860      995
   14.875     1119
   14.890     1385
   14.905     1656
   14.920     1734
   14.935     1471
   14.950     1004
   14.965      555
   14.980      406
   14.995      362
   15.010      365
   15.025      359
   15.040      344
   15.055      396
   15.070      419
   15.085      439
   15.100      496
   15.115      526
   15.130      625
   15.145      661
   15.160      574
   15.175      485
   15.190      479
   15.205      435
   15.220      368
   15.235      324
   15.250      288
   15.265      305
   15.280      281
   15.295      329
   15.310      374
   15.325      371
   15.340      383
   15.355      424
   15.370      487
   15.385      589
   15.400      685
   15.415      669
   15.430      612
   15.445      441
   15.460      366
   15.475      335
   15.490      336
   15.505      360
   15.520      371
   15.535      421
   15.550      461
   15.565      500
   15.580      612
   15.595      678
   15.610      687
   15.625      524
   15.640      415
   15.655      384
   15.670      304
   15.685      319
   15.700      299
   15.715      265
   15.730      270
   15.745      309
   15.760      313
   15.775      280
   15.790      308
   15.805      324
   15.820      349
   15.835      346
   15.850      397
   15.865      447
   15.880      513
   15.895      648
   15.910      699
   15.925      746
   15.940      761
   15.955      776
   15.970      673
   15.985      554
   16.000      409
   16.015      386
   16.030      359
   16.045      410
   16.060      454
   16.075      449
   16.090      504
   16.105      582
   16.120      581
   16.135      570
   16.150      565
   16.165      571
   16.180      640
   16.195      768
   16.210      927
   16.225     1142
   16.240     1229
   16.255     1123
   16.270      961
   16.285      751
   16.300      683
   16.315      739
   16.330      818
   16.345      930
   16.360      915
   16.375      840
   16.390      741
   16.405      720
   16.420      712
   16.435      708
   16.450      700
   16.465      799
   16.480      984
   16.495     1166
   16.510     1211
   16.525     1103
   16.540      940
   16.555      909
   16.570      943
   16.585      926
   16.600      882
   16.615      809
   16.630      711
   16.645      528
   16.660      403
   16.675      347
   16.690      337
   16.705      326
   16.720      337
   16.735      357
   16.750      380
   16.765      438
   16.780      479
   16.795      514
   16.810      600
   16.825      622
   16.840      528
   16.855      447
   16.870      343
   16.885      304
   16.900      298
   16.915      295
   16.930      306
   16.945      331
   16.960      352
   16.975      405
   16.990      436
   17.005      502
   17.020      501
   17.035      464
   17.050      424
   17.065      388
   17.080      357
   17.095      340
   17.110      374
   17.125      357
   17.140      349
   17.155      327
   17.170      313
   17.185      342
   17.200      348
   17.215      381
   17.230      437
   17.245      499
   17.260      545
   17.275      601
   17.290      568
   17.305      462
   17.320      341
   17.335      289
   17.350      249
   17.365      263
   17.380      289
   17.395      267
   17.410      246
   17.425      296
   17.440      327
   17.455      359
   17.470      343
   17.485      325
   17.500      354
   17.515      336
   17.530      349
   17.545      379
   17.560      357
   17.575      301
   17.590      288
   17.605      274
   17.620      264
   17.635      228
   17.650      239
   17.665      228
   17.680      231
   17.695      210
   17.710      210
   17.725      182
   17.740      204
   17.755      216
   17.770      240
   17.785      225
   17.800      235
   17.815      216
   17.830      183
   17.845      222
   17.860      195
   17.875      202
   17.890      192
   17.905      211
   17.920      215
   17.935      229
   17.950      255
   17.965      247
   17.980      276
   17.995      305
   18.010      329
   18.025      343
   18.040      369
   18.055      422
   18.070      455
   18.085      417
   18.100      362
   18.115      293
   18.130      254
   18.145      234
   18.160      232
   18.175      225
   18.190      205
   18.205      234
   18.220      240
   18.235      227
   18.250      263
   18.265      279
   18.280      296
   18.295      329
   18.310      405
   18.325      461
   18.340      492
   18.355      484
   18.370      494
   18.385      494
   18.400      531
   18.415      607
   18.430      690
   18.445      627
   18.460      656
   18.475      609
   18.490      594
   18.505      545
   18.520      480
   18.535      424
   18.550      384
   18.565      382
   18.580      383
   18.595      391
   18.610      448
   18.625      460
   18.640      539
   18.655      584
   18.670      532
   18.685      522
   18.700      403
   18.715      359
   18.730      362
   18.745      348
   18.760      329
   18.775      299
   18.790      279
   18.805      255
   18.820      248
   18.835      218
   18.850      244
   18.865      227
   18.880      221
   18.895      221
   18.910      193
   18.925      211
   18.940      219
   18.955      228
   18.970      208
   18.985      190
   19.000      211
   19.015      219
   19.030      205
   19.045      196
   19.060      187
   19.075      207
   19.090      185
   19.105      193
   19.120      199
   19.135      205
   19.150      192
   19.165      197
   19.180      207
   19.195      199
   19.210      214
   19.225      207
   19.240      189
   19.255      231
   19.270      233
   19.285      257
   19.300      269
   19.315      296
   19.330      332
   19.345      359
   19.360      392
   19.375      427
   19.390      400
   19.405      384
   19.420      361
   19.435      338
   19.450      284
   19.465      259
   19.480      260
   19.495      246
   19.510      284
   19.525      302
   19.540      311
   19.555      389
   19.570      467
   19.585      531
   19.600      581
   19.615      684
   19.630      814
   19.645      996
   19.660     1066
   19.675     1004
   19.690      832
   19.705      705
   19.720      654
   19.735      690
   19.750      732
   19.765      749
   19.780      758
   19.795      710
   19.810      606
   19.825      521
   19.840      444
   19.855      353
   19.870      291
   19.885      294
   19.900      316
   19.915      289
   19.930      282
   19.945      332
   19.960      345
   19.975      359
   19.990      325
   20.005      280
   20.020      229
   20.035      220
   20.050      208
   20.065      207
   20.080      210
   20.095      204
   20.110      196
   20.125      203
   20.140      201
   20.155      204
   20.170      204
   20.185      194
   20.200      181
   20.215      203
   20.230      193
   20.245      215
   20.260      226
   20.275      203
   20.290      207
   20.305      226
   20.320      228
   20.335      245
   20.350      217
   20.365      216
   20.380      233
   20.395      228
   20.410      238
   20.425      257
   20.440      263
   20.455      289
   20.470      325
   20.485      334
   20.500      410
   20.515      401
   20.530      416
   20.545      358
   20.560      344
   20.575      389
   20.590      419
   20.605      439
   20.620      418
   20.635      374
   20.650      311
   20.665      263
   20.680      251
   20.695      224
   20.710      257
   20.725      243
   20.740      249
   20.755      233
   20.770      246
   20.785      239
   20.800      219
   20.815      221
   20.830      225
   20.845      210
   20.860      253
   20.875      283
   20.890      235
   20.905      228
   20.920      223
   20.935      226
   20.950      249
   20.965      273
   20.980      278
   20.995      274
   21.010      233
   21.025      224
   21.040      224
   21.055      207
   21.070      218
   21.085      177
   21.100      181
   21.115      195
   21.130      192
   21.145      208
   21.160      206
   21.175      182
   21.190      208
   21.205      229
   21.220      240
   21.235      288
   21.250      322
   21.265      332
   21.280      403
   21.295      458
   21.310      544
   21.325      658
   21.340      638
   21.355      602
   21.370      514
   21.385      479
   21.400      454
   21.415      469
   21.430      557
   21.445      694
   21.460      818
   21.475     1047
   21.490     1298
   21.505     1554
   21.520     1645
   21.535     1539
   21.550     1115
   21.565      783
   21.580      579
   21.595      544
   21.610      479
   21.625      453
   21.640      401
   21.655      343
   21.670      311
   21.685      306
   21.700      263
   21.715      252
   21.730      220
   21.745      213
   21.760      205
   21.775      226
   21.790      232
   21.805      207
   21.820      215
   21.835      221
   21.850      227
   21.865      216
   21.880      239
   21.895      216
   21.910      208
   21.925      217
   21.940      219
   21.955      201
   21.970      204
   21.985      224
   22.000      227
   22.015      257
   22.030      278
   22.045      283
   22.060      282
   22.075      341
   22.090      386
   22.105      360
   22.120      356
   22.135      322
   22.150      279
   22.165      235
   22.180      229
   22.195      230
   22.210      251
   22.225      259
   22.240      271
   22.255      314
   22.270      345
   22.285      351
   22.300      392
   22.315      434
   22.330      462
   22.345      493
   22.360      478
   22.375      437
   22.390      383
   22.405      343
   22.420      356
   22.435      389
   22.450      430
   22.465      450
   22.480      483
   22.495      524
   22.510      585
   22.525      665
   22.540      686
   22.555      666
   22.570      627
   22.585      538
   22.600      463
   22.615      411
   22.630      332
   22.645      273
   22.660      308
   22.675      314
   22.690      305
   22.705      293
   22.720      309
   22.735      327
   22.750      350
   22.765      407
   22.780      455
   22.795      420
   22.810      370
   22.825      323
   22.840      357
   22.855      369
   22.870      370
   22.885      381
   22.900      379
   22.915      351
   22.930      325
   22.945      265
   22.960      251
   22.975      221
   22.990      223
   23.005      213
   23.020      224
   23.035      223
   23.050      223
   23.065      256
   23.080      298
   23.095      304
   23.110      270
   23.125      241
   23.140      225
   23.155      193
   23.170      191
   23.185      173
   23.200      160
   23.215      169
   23.230      182
   23.245      179
   23.260      174
   23.275      177
   23.290      192
   23.305      185
   23.320      192
   23.335      195
   23.350      189
   23.365      183
   23.380      164
   23.395      159
   23.410      182
   23.425      161
   23.440      186
   23.455      186
   23.470      203
   23.485      209
   23.500      193
   23.515      197
   23.530      228
   23.545      219
   23.560      199
   23.575      193
   23.590      219
   23.605      201
   23.620      215
   23.635      209
   23.650      270
   23.665      298
   23.680      271
   23.695      279
   23.710      231
   23.725      213
   23.740      205
   23.755      194
   23.770      170
   23.785      209
   23.800      205
   23.815      209
   23.830      234
   23.845      210
   23.860      266
   23.875      275
   23.890      283
   23.905      347
   23.920      375
   23.935      390
   23.950      340
   23.965      311
   23.980      271
   23.995      268
   24.010      237
   24.025      231
   24.040      246
   24.055      283
   24.070      278
   24.085      290
   24.100      282
   24.115      292
   24.130      321
   24.145      294
   24.160      257
   24.175      237
   24.190      209
   24.205      209
   24.220      209
   24.235      205
   24.250      212
   24.265      225
   24.280      227
   24.295      219
   24.310      218
   24.325      211
   24.340      213
   24.355      224
   24.370      216
   24.385      218
   24.400      198
   24.415      194
   24.430      212
   24.445      203
   24.460      204
   24.475      192
   24.490      162
   24.505      174
   24.520      196
   24.535      194
   24.550      202
   24.565      206
   24.580      250
   24.595      255
   24.610      249
   24.625      300
   24.640      332
   24.655      324
   24.670      324
   24.685      293
   24.700      250
   24.715      270
   24.730      231
   24.745      227
   24.760      234
   24.775      251
   24.790      249
   24.805      284
   24.820      287
   24.835      325
   24.850      343
   24.865      357
   24.880      326
   24.895      273
   24.910      240
   24.925      217
   24.940      202
   24.955      213
   24.970      209
   24.985      220
   25.000      203
   25.015      241
   25.030      221
   25.045      272
   25.060      312
   25.075      333
   25.090      308
   25.105      296
   25.120      270
   25.135      273
   25.150      288
   25.165      302
   25.180      264
   25.195      253
   25.210      241
   25.225      270
   25.240      307
   25.255      328
   25.270      382
   25.285      426
   25.300      430
   25.315      484
   25.330      465
   25.345      479
   25.360      423
   25.375      344
   25.390      286
   25.405      245
   25.420      240
   25.435      240
   25.450      233
   25.465      252
   25.480      263
   25.495      297
   25.510      307
   25.525      338
   25.540      306
   25.555      294
   25.570      299
   25.585      275
   25.600      243
   25.615      242
   25.630      220
   25.645      205
   25.660      216
   25.675      218
   25.690      214
   25.705      250
   25.720      242
   25.735      246
   25.750      258
   25.765      244
   25.780      228
   25.795      261
   25.810      258
   25.825      254
   25.840      263
   25.855      246
   25.870      240
   25.885      227
   25.900      223
   25.915      211
   25.930      228
   25.945      214
   25.960      206
   25.975      192
   25.990      202
   26.005      240
   26.020      226
   26.035      231
   26.050      204
   26.065      188
   26.080      212
   26.095      189
   26.110      169
   26.125      171
   26.140      175
   26.155      177
   26.170      190
   26.185      179
   26.200      201
   26.215      205
   26.230      202
   26.245      225
   26.260      228
   26.275      262
   26.290      269
   26.305      293
   26.320      288
   26.335      261
   26.350      223
   26.365      223
   26.380      208
   26.395      192
   26.410      219
   26.425      227
   26.440      243
   26.455      212
   26.470      265
   26.485      281
   26.500      353
   26.515      387
   26.530      396
   26.545      393
   26.560      369
   26.575      348
   26.590      370
   26.605      390
   26.620      404
   26.635      339
   26.650      317
   26.665      288
   26.680      275
   26.695      247
   26.710      251
   26.725      240
   26.740      219
   26.755      198
   26.770      212
   26.785      206
   26.800      185
   26.815      207
   26.830      203
   26.845      238
   26.860      250
   26.875      213
   26.890      208
   26.905      217
   26.920      202
   26.935      216
   26.950      206
   26.965      201
   26.980      232
   26.995      219
   27.010      217
   27.025      231
   27.040      247
   27.055      240
   27.070      239
   27.085      245
   27.100      279
   27.115      289
   27.130      323
   27.145      387
   27.160      370
   27.175      368
   27.190      363
   27.205      354
   27.220      421
   27.235      421
   27.250      416
   27.265      403
   27.280      396
   27.295      390
   27.310      374
   27.325      369
   27.340      304
   27.355      293
   27.370      266
   27.385      258
   27.400      254
   27.415      235
   27.430      223
   27.445      225
   27.460      229
   27.475      253
   27.490      269
   27.505      279
   27.520      261
   27.535      293
   27.550      267
   27.565      236
   27.580      226
   27.595      227
   27.610      207
   27.625      218
   27.640      219
   27.655      224
   27.670      242
   27.685      210
   27.700      241
   27.715      271
   27.730      254
   27.745      281
   27.760      233
   27.775      233
   27.790      228
   27.805      236
   27.820      222
   27.835      235
   27.850      240
   27.865      257
   27.880      251
   27.895      241
   27.910      259
   27.925      257
   27.940      226
   27.955      247
   27.970      260
   27.985      223
   28.000      223
   28.015      226
   28.030      231
   28.045      218
   28.060      245
   28.075      218
   28.090      191
   28.105      186
   28.120      194
   28.135      197
   28.150      204
   28.165      214
   28.180      189
   28.195      177
   28.210      198
   28.225      229
   28.240      211
   28.255      228
   28.270      216
   28.285      240
   28.300      227
   28.315      226
   28.330      203
   28.345      210
   28.360      219
   28.375      233
   28.390      239
   28.405      231
   28.420      218
   28.435      214
   28.450      246
   28.465      248
   28.480      269
   28.495      269
   28.510      275
   28.525      261
   28.540      260
   28.555      279
   28.570      265
   28.585      253
   28.600      246
   28.615      223
   28.630      239
   28.645      234
   28.660      238
   28.675      222
   28.690      215
   28.705      242
   28.720      224
   28.735      216
   28.750      217
   28.765      206
   28.780      221
   28.795      226
   28.810      217
   28.825      229
   28.840      231
   28.855      234
   28.870      233
   28.885      216
   28.900      239
   28.915      220
   28.930      218
   28.945      208
   28.960      212
   28.975      207
   28.990      196
   29.005      210
   29.020      190
   29.035      208
   29.050      200
   29.065      221
   29.080      229
   29.095      217
   29.110      219
   29.125      217
   29.140      230
   29.155      223
   29.170      230
   29.185      257
   29.200      250
   29.215      279
   29.230      284
   29.245      311
   29.260      320
   29.275      350
   29.290      331
   29.305      301
   29.320      291
   29.335      260
   29.350      257
   29.365      242
   29.380      234
   29.395      263
   29.410      253
   29.425      238
   29.440      251
   29.455      244
   29.470      252
   29.485      227
   29.500      224
   29.515      219
   29.530      217
   29.545      192
   29.560      197
   29.575      197
   29.590      216
   29.605      204
   29.620      179
   29.635      190
   29.650      202
   29.665      205
   29.680      209
   29.695      224
   29.710      210
   29.725      183
   29.740      192
   29.755      206
   29.770      191
   29.785      214
   29.800      208
   29.815      186
   29.830      197
   29.845      200
   29.860      189
   29.875      179
   29.890      187
   29.905      194
   29.920      181
   29.935      182
   29.950      199
   29.965      218
   29.980      188
   29.995      213
   30.010      212
   30.025      224
   30.040      214
   30.055      196
   30.070      216
   30.085      223
   30.100      247
   30.115      249
   30.130      233
   30.145      229
   30.160      213
   30.175      242
   30.190      259
   30.205      235
   30.220      238
   30.235      243
   30.250      241
   30.265      243
   30.280      240
   30.295      214
   30.310      209
   30.325      201
   30.340      177
   30.355      183
   30.370      195
   30.385      178
   30.400      194
   30.415      206
   30.430      204
   30.445      208
   30.460      241
   30.475      235
   30.490      260
   30.505      260
   30.520      253
   30.535      273
   30.550      262
   30.565      272
   30.580      260
   30.595      259
   30.610      240
   30.625      245
   30.640      225
   30.655      224
   30.670      217
   30.685      232
   30.700      221
   30.715      235
   30.730      223
   30.745      223
   30.760      206
   30.775      212
   30.790      217
   30.805      232
   30.820      220
   30.835      208
   30.850      199
   30.865      212
   30.880      212
   30.895      209
   30.910      223
   30.925      222
   30.940      226
   30.955      227
   30.970      233
   30.985      240
   31.000      236
   31.015      233
   31.030      246
   31.045      226
   31.060      215
   31.075      192
   31.090      226
   31.105      257
   31.120      228
   31.135      229
   31.150      243
   31.165      247
   31.180      241
   31.195      234
   31.210      212
   31.225      220
   31.240      214
   31.255      243
   31.270      244
   31.285      238
   31.300      225
   31.315      228
   31.330      253
   31.345      266
   31.360      246
   31.375      272
   31.390      291
   31.405      302
   31.420      319
   31.435      305
   31.450      306
   31.465      299
   31.480      253
   31.495      239
   31.510      231
   31.525      223
   31.540      245
   31.555      244
   31.570      252
   31.585      221
   31.600      192
   31.615      211
   31.630      242
   31.645      209
   31.660      225
   31.675      222
   31.690      234
   31.705      250
   31.720      205
   31.735      190
   31.750      212
   31.765      200
   31.780      219
   31.795      209
   31.810      201
   31.825      191
   31.840      189
   31.855      186
   31.870      185
   31.885      207
   31.900      212
   31.915      196
   31.930      183
   31.945      203
   31.960      179
   31.975      201
   31.990      207
   32.005      184
   32.020      175
   32.035      173
   32.050      182
   32.065      172
   32.080      185
   32.095      183
   32.110      190
   32.125      189
   32.140      196
   32.155      187
   32.170      179
   32.185      185
   32.200      192
   32.215      190
   32.230      192
   32.245      200
   32.260      190
   32.275      206
   32.290      195
   32.305      191
   32.320      190
   32.335      189
   32.350      189
   32.365      199
   32.380      209
   32.395      219
   32.410      204
   32.425      250
   32.440      251
   32.455      243
   32.470      243
   32.485      255
   32.500      288
   32.515      292
   32.530      296
   32.545      277
   32.560      283
   32.575      265
   32.590      240
   32.605      238
   32.620      243
   32.635      230
   32.650      212
   32.665      217
   32.680      202
   32.695      203
   32.710      233
   32.725      240
   32.740      218
   32.755      224
   32.770      213
   32.785      191
   32.800      206
   32.815      214
   32.830      212
   32.845      189
   32.860      212
   32.875      203
   32.890      186
   32.905      198
   32.920      235
   32.935      257
   32.950      227
   32.965      231
   32.980      249
   32.995      254
   33.010      265
   33.025      281
   33.040      274
   33.055      297
   33.070      290
   33.085      278
   33.100      258
   33.115      258
   33.130      254
   33.145      224
   33.160      239
   33.175      235
   33.190      226
   33.205      228
   33.220      254
   33.235      248
   33.250      212
   33.265      210
   33.280      268
   33.295      281
   33.310      280
   33.325      329
   33.340      329
   33.355      331
   33.370      274
   33.385      288
   33.400      291
   33.415      255
   33.430      220
   33.445      224
   33.460      230
   33.475      242
   33.490      255
   33.505      253
   33.520      256
   33.535      222
   33.550      231
   33.565      246
   33.580      247
   33.595      229
   33.610      226
   33.625      217
   33.640      194
   33.655      202
   33.670      211
   33.685      193
   33.700      183
   33.715      206
   33.730      195
   33.745      206
   33.760      188
   33.775      183
   33.790      170
   33.805      191
   33.820      200
   33.835      179
   33.850      171
   33.865      191
   33.880      178
   33.895      201
   33.910      189
   33.925      185
   33.940      182
   33.955      176
   33.970      204
   33.985      216
   34.000      209
   34.015      224
   34.030      230
   34.045      224
   34.060      232
   34.075      209
   34.090      195
   34.105      187
   34.120      192
   34.135      182
   34.150      184
   34.165      195
   34.180      195
   34.195      188
   34.210      180
   34.225      178
   34.240      179
   34.255      202
   34.270      202
   34.285      204
   34.300      222
   34.315      221
   34.330      213
   34.345      203
   34.360      212
   34.375      204
   34.390      194
   34.405      189
   34.420      186
   34.435      196
   34.450      189
   34.465      197
   34.480      213
   34.495      215
   34.510      200
   34.525      217
   34.540      200
   34.555      209
   34.570      227
   34.585      199
   34.600      173
   34.615      186
   34.630      193
   34.645      218
   34.660      216
   34.675      208
   34.690      230
   34.705      216
   34.720      238
   34.735      274
   34.750      292
   34.765      294
   34.780      287
   34.795      262
   34.810      260
   34.825      281
   34.840      258
   34.855      262
   34.870      308
   34.885      301
   34.900      307
   34.915      307
   34.930      335
   34.945      337
   34.960      332
   34.975      329
   34.990      320
   35.005      328
   35.020      320
   35.035      319
   35.050      320
   35.065      347
   35.080      361
   35.095      351
   35.110      308
   35.125      312
   35.140      294
   35.155      265
   35.170      256
   35.185      243
   35.200      244
   35.215      234
   35.230      224
   35.245      192
   35.260      215
   35.275      210
   35.290      218
   35.305      212
   35.320      200
   35.335      186
   35.350      176
   35.365      167
   35.380      192
   35.395      176
   35.410      165
   35.425      169
   35.440      163
   35.455      171
   35.470      166
   35.485      182
   35.500      187
   35.515      183
   35.530      188
   35.545      161
   35.560      175
   35.575      174
   35.590      173
   35.605      210
   35.620      196
   35.635      170
   35.650      181
   35.665      177
   35.680      193
   35.695      183
   35.710      180
   35.725      199
   35.740      191
   35.755      188
   35.770      188
   35.785      205
   35.800      200
   35.815      245
   35.830      251
   35.845      205
   35.860      215
   35.875      204
   35.890      201
   35.905      207
   35.920      192
   35.935      203
   35.950      175
   35.965      171
   35.980      181
   35.995      177
   36.010      196
   36.025      199
   36.040      186
   36.055      192
   36.070      194
   36.085      183
   36.100      187
   36.115      207
   36.130      191
   36.145      164
   36.160      167
   36.175      178
   36.190      172
   36.205      160
   36.220      170
   36.235      184
   36.250      193
   36.265      192
   36.280      200
   36.295      168
   36.310      167
   36.325      174
   36.340      180
   36.355      186
   36.370      203
   36.385      170
   36.400      167
   36.415      161
   36.430      164
   36.445      161
   36.460      192
   36.475      184
   36.490      171
   36.505      178
   36.520      192
   36.535      205
   36.550      191
   36.565      193
   36.580      214
   36.595      188
   36.610      199
   36.625      189
   36.640      187
   36.655      190
   36.670      192
   36.685      196
   36.700      182
   36.715      186
   36.730      196
   36.745      215
   36.760      224
   36.775      205
   36.790      198
   36.805      218
   36.820      218
   36.835      178
   36.850      154
   36.865      174
   36.880      168
   36.895      151
   36.910      162
   36.925      155
   36.940      164
   36.955      156
   36.970      151
   36.985      153
   37.000      181
   37.015      178
   37.030      150
   37.045      147
   37.060      157
   37.075      163
   37.090      163
   37.105      177
   37.120      168
   37.135      160
   37.150      188
   37.165      161
   37.180      152
   37.195      191
   37.210      168
   37.225      156
   37.240      174
   37.255      181
   37.270      173
   37.285      160
   37.300      162
   37.315      171
   37.330      177
   37.345      164
   37.360      165
   37.375      187
   37.390      167
   37.405      191
   37.420      170
   37.435      182
   37.450      192
   37.465      199
   37.480      201
   37.495      203
   37.510      203
   37.525      216
   37.540      206
   37.555      180
   37.570      184
   37.585      170
   37.600      169
   37.615      160
   37.630      170
   37.645      165
   37.660      174
   37.675      177
   37.690      168
   37.705      188
   37.720      174
   37.735      190
   37.750      171
   37.765      173
   37.780      178
   37.795      177
   37.810      219
   37.825      247
   37.840      230
   37.855      233
   37.870      233
   37.885      209
   37.900      212
   37.915      180
   37.930      160
   37.945      153
   37.960      157
   37.975      174
   37.990      181
   38.005      175
   38.020      170
   38.035      200
   38.050      158
   38.065      166
   38.080      189
   38.095      205
   38.110      204
   38.125      201
   38.140      223
   38.155      179
   38.170      179
   38.185      186
   38.200      181
   38.215      178
   38.230      172
   38.245      176
   38.260      191
   38.275      183
   38.290      168
   38.305      165
   38.320      183
   38.335      178
   38.350      163
   38.365      187
   38.380      167
   38.395      168
   38.410      185
   38.425      184
   38.440      194
   38.455      174
   38.470      163
   38.485      175
   38.500      188
   38.515      167
   38.530      155
   38.545      154
   38.560      159
   38.575      163
   38.590      169
   38.605      157
   38.620      172
   38.635      143
   38.650      151
   38.665      153
   38.680      157
   38.695      141
   38.710      156
   38.725      149
   38.740      136
   38.755      154
   38.770      146
   38.785      164
   38.800      143
   38.815      157
   38.830      146
   38.845      129
   38.860      131
   38.875      151
   38.890      128
   38.905      165
   38.920      153
   38.935      147
   38.950      149
   38.965      164
   38.980      152
   38.995      142
   39.010      147
   39.025      143
   39.040      144
   39.055      167
   39.070      160
   39.085      165
   39.100      150
   39.115      143
   39.130      136
   39.145      146
   39.160      165
   39.175      172
   39.190      172
   39.205      169
   39.220      169
   39.235      160
   39.250      172
   39.265      180
   39.280      170
   39.295      168
   39.310      177
   39.325      163
   39.340      151
   39.355      156
   39.370      154
   39.385      178
   39.400      163
   39.415      170
   39.430      158
   39.445      142
   39.460      136
   39.475      121
   39.490      126
   39.505      153
   39.520      145
   39.535      142
   39.550      143
   39.565      153
   39.580      136
   39.595      152
   39.610      165
   39.625      159
   39.640      151
   39.655      158
   39.670      155
   39.685      165
   39.700      143
   39.715      142
   39.730      131
   39.745      146
   39.760      162
   39.775      162
   39.790      154
   39.805      161
   39.820      167
   39.835      162
   39.850      176
   39.865      169
   39.880      159
   39.895      181
   39.910      172
   39.925      175
   39.940      172
   39.955      186
   39.970      205
   39.985      213
   40.000      182
   40.015      155
   40.030      170
   40.045      184
   40.060      150
   40.075      169
   40.090      162
   40.105      155
   40.120      179
   40.135      185
   40.150      167
   40.165      175
   40.180      167
   40.195      170
   40.210      191
   40.225      199
   40.240      164
   40.255      172
   40.270      172
   40.285      184
   40.300      165
   40.315      160
   40.330      151
   40.345      152
   40.360      136
   40.375      157
   40.390      171
   40.405      162
   40.420      171
   40.435      158
   40.450      151
   40.465      147
   40.480      144
   40.495      147
   40.510      162
   40.525      158
   40.540      168
   40.555      160
   40.570      160
   40.585      154
   40.600      149
   40.615      152
   40.630      136
   40.645      135
   40.660      149
   40.675      143
   40.690      151
   40.705      115
   40.720      143
   40.735      145
   40.750      144
   40.765      150
   40.780      126
   40.795      138
   40.810      150
   40.825      150
   40.840      158
   40.855      145
   40.870      142
   40.885      144
   40.900      156
   40.915      153
   40.930      155
   40.945      161
   40.960      145
   40.975      150
   40.990      152
   41.005      161
   41.020      141
   41.035      138
   41.050      146
   41.065      149
   41.080      155
   41.095      151
   41.110      154
   41.125      156
   41.140      165
   41.155      161
   41.170      164
   41.185      151
   41.200      142
   41.215      152
   41.230      146
   41.245      171
   41.260      160
   41.275      156
   41.290      146
   41.305      158
   41.320      166
   41.335      158
   41.350      141
   41.365      146
   41.380      153
   41.395      153
   41.410      145
   41.425      175
   41.440      159
   41.455      138
   41.470      169
   41.485      157
   41.500      162
   41.515      169
   41.530      164
   41.545      171
   41.560      172
   41.575      185
   41.590      162
   41.605      139
   41.620      136
   41.635      147
   41.650      136
   41.665      152
   41.680      160
   41.695      132
   41.710      134
   41.725      167
   41.740      157
   41.755      159
   41.770      154
   41.785      174
   41.800      154
   41.815      140
   41.830      138
   41.845      141
   41.860      158
   41.875      135
   41.890      167
   41.905      137
   41.920      147
   41.935      127
   41.950      131
   41.965      153
   41.980      151
   41.995      147
   42.010      136
   42.025      124
   42.040      132
   42.055      143
   42.070      132
   42.085      128
   42.100      145
   42.115      152
   42.130      158
   42.145      143
   42.160      143
   42.175      141
   42.190      144
   42.205      144
   42.220      154
   42.235      158
   42.250      148
   42.265      151
   42.280      145
   42.295      146
   42.310      140
   42.325      145
   42.340      128
   42.355      143
   42.370      137
   42.385      143
   42.400      156
   42.415      159
   42.430      161
   42.445      149
   42.460      140
   42.475      146
   42.490      152
   42.505      144
   42.520      140
   42.535      155
   42.550      156
   42.565      137
   42.580      139
   42.595      152
   42.610      149
   42.625      131
   42.640      149
   42.655      144
   42.670      157
   42.685      163
   42.700      142
   42.715      147
   42.730      142
   42.745      128
   42.760      134
   42.775      142
   42.790      144
   42.805      143
   42.820      153
   42.835      144
   42.850      137
   42.865      144
   42.880      154
   42.895      136
   42.910      142
   42.925      139
   42.940      149
   42.955      133
   42.970      143
   42.985      137
   43.000      136
   43.015      120
   43.030      125
   43.045      152
   43.060      158
   43.075      145
   43.090      156
   43.105      144
   43.120      135
   43.135      150
   43.150      161
   43.165      124
   43.180      150
   43.195      135
   43.210      143
   43.225      155
   43.240      129
   43.255      139
   43.270      137
   43.285      144
   43.300      135
   43.315      151
   43.330      159
   43.345      132
   43.360      130
   43.375      143
   43.390      134
   43.405      147
   43.420      127
   43.435      142
   43.450      133
   43.465      145
   43.480      157
   43.495      158
   43.510      153
   43.525      130
   43.540      156
   43.555      148
   43.570      155
   43.585      159
   43.600      158
   43.615      151
   43.630      154
   43.645      159
   43.660      147
   43.675      142
   43.690      155
   43.705      160
   43.720      151
   43.735      142
   43.750      146
   43.765      141
   43.780      133
   43.795      138
   43.810      125
   43.825      132
   43.840      147
   43.855      147
   43.870      130
   43.885      145
   43.900      164
   43.915      173
   43.930      175
   43.945      153
   43.960      132
   43.975      140
   43.990      150
   44.005      145
   44.020      154
   44.035      153
   44.050      139
   44.065      131
   44.080      141
   44.095      153
   44.110      146
   44.125      161
   44.140      171
   44.155      148
   44.170      174
   44.185      184
   44.200      160
   44.215      161
   44.230      165
   44.245      142
   44.260      143
   44.275      144
   44.290      158
   44.305      165
   44.320      175
   44.335      170
   44.350      162
   44.365      157
   44.380      156
   44.395      164
   44.410      189
   44.425      184
   44.440      179
   44.455      180
   44.470      172
   44.485      177
   44.500      177
   44.515      170
   44.530      157
   44.545      167
   44.560      163
   44.575      173
   44.590      163
   44.605      162
   44.620      164
   44.635      155
   44.650      152
   44.665      154
   44.680      144
   44.695      140
   44.710      151
   44.725      144
   44.740      155
   44.755      139
   44.770      150
   44.785      153
   44.800      135
   44.815      148
   44.830      136
   44.845      152
   44.860      152
   44.875      161
   44.890      152
   44.905      153
   44.920      147
   44.935      141
   44.950      150
   44.965      143
   44.980      132
   44.995      133
   45.010      126
   45.025      139
   45.040      139
   45.055      126
   45.070      143
   45.085      141
   45.100      132
   45.115      144
   45.130      150
   45.145      134
   45.160      151
   45.175      141
   45.190      134
   45.205      148
   45.220      153
   45.235      148
   45.250      155
   45.265      140
   45.280      156
   45.295      149
   45.310      156
   45.325      158
   45.340      155
   45.355      131
   45.370      149
   45.385      157
   45.400      131
   45.415      133
   45.430      129
   45.445      143
   45.460      147
   45.475      133
   45.490      135
   45.505      150
   45.520      164
   45.535      155
   45.550      141
   45.565      144
   45.580      145
   45.595      126
   45.610      143
   45.625      134
   45.640      154
   45.655      147
   45.670      146
   45.685      122
   45.700      136
   45.715      145
   45.730      137
   45.745      135
   45.760      134
   45.775      118
   45.790      141
   45.805      139
   45.820      137
   45.835      133
   45.850      130
   45.865      146
   45.880      154
   45.895      154
   45.910      134
   45.925      147
   45.940      152
   45.955      132
   45.970      155
   45.985      153
