    4.000      573
    4.015      588
    4.030      558
    4.045      562
    4.060      547
    4.075      557
    4.090      570
    4.105      585
    4.120      578
    4.135      556
    4.150      566
    4.165      578
    4.180      583
    4.195      564
    4.210      567
    4.225      555
    4.240      558
    4.255      571
    4.270      548
    4.285      560
    4.300      572
    4.315      575
    4.330      582
    4.345      578
    4.360      542
    4.375      602
    4.390      584
    4.405      596
    4.420      567
    4.435      571
    4.450      538
    4.465      542
    4.480      559
    4.495      573
    4.510      583
    4.525      572
    4.540      576
    4.555      590
    4.570      563
    4.585      543
    4.600      582
    4.615      563
    4.630      563
    4.645      537
    4.660      546
    4.675      547
    4.690      560
    4.705      588
    4.720      577
    4.735      545
    4.750      551
    4.765      520
    4.780      549
    4.795      563
    4.810      603
    4.825      551
    4.840      562
    4.855      502
    4.870      555
    4.885      572
    4.900      573
    4.915      538
    4.930      553
    4.945      541
    4.960      558
    4.975      597
    4.990      561
    5.005      562
    5.020      574
    5.035      572
    5.050      536
    5.065      550
    5.080      588
    5.095      566
    5.110      555
    5.125      582
    5.140      580
    5.155      570
    5.170      530
    5.185      525
    5.200      555
    5.215      535
    5.230      523
    5.245      544
    5.260      565
    5.275      531
    5.290      519
    5.305      573
    5.320      570
    5.335      537
    5.350      555
    5.365      546
    5.380      563
    5.395      573
    5.410      586
    5.425      543
    5.440      529
    5.455      543
    5.470      527
    5.485      543
    5.500      572
    5.515      559
    5.530      553
    5.545      559
    5.560      531
    5.575      539
    5.590      560
    5.605      557
    5.620      505
    5.635      519
    5.650      519
    5.665      507
    5.680      536
    5.695      539
    5.710      543
    5.725      567
    5.740      568
    5.755      588
    5.770      564
    5.785      528
    5.800      543
    5.815      527
    5.830      545
    5.845      545
    5.860      534
    5.875      528
    5.890      533
    5.905      556
    5.920      576
    5.935      594
    5.950      566
    5.965      572
    5.980      572
    5.995      569
    6.010      582
    6.025      556
    6.040      572
    6.055      614
    6.070      602
    6.085      563
    6.100      541
    6.115      506
    6.130      532
    6.145      527
    6.160      545
    6.175      548
    6.190      532
    6.205      571
    6.220      574
    6.235      584
    6.250      585
    6.265      610
    6.280      625
    6.295      651
    6.310      709
    6.325      706
    6.340      710
    6.355      701
    6.370      703
    6.385      741
    6.400      827
    6.415      911
    6.430      959
    6.445      973
    6.460     1038
    6.475     1069
    6.490     1115
    6.505     1203
    6.520     1317
    6.535     1457
    6.550     1664
    6.565     1865
    6.580     2144
    6.595     2556
    6.610     2565
    6.625     2400
    6.640     2378
    6.655     2619
    6.670     2404
    6.685     1807
    6.700     1088
    6.715      733
    6.730      624
    6.745      558
    6.760      584
    6.775      551
    6.790      563
    6.805      568
    6.820      567
    6.835      547
    6.850      575
    6.865      563
    6.880      554
    6.895      582
    6.910      580
    6.925      552
    6.940      589
    6.955      616
    6.970      608
    6.985      609
    7.000      618
    7.015      631
    7.030      641
    7.045      659
    7.060      691
    7.075      714
    7.090      717
    7.105      800
    7.120      832
    7.135      849
    7.150     1002
    7.165     1111
    7.180     1204
    7.195     1149
    7.210      898
    7.225      706
    7.240      611
    7.255      549
    7.270      535
    7.285      522
    7.300      562
    7.315      557
    7.330      509
    7.345      535
    7.360      554
    7.375      533
    7.390      541
    7.405      522
    7.420      556
    7.435      584
    7.450      575
    7.465      526
    7.480      528
    7.495      531
    7.510      539
    7.525      538
    7.540      541
    7.555      543
    7.570      545
    7.585      577
    7.600      558
    7.615      561
    7.630      596
    7.645      630
    7.660      583
    7.675      580
    7.690      563
    7.705      578
    7.720      554
    7.735      569
    7.750      565
    7.765      531
    7.780      517
    7.795      561
    7.810      531
    7.825      545
    7.840      550
    7.855      570
    7.870      531
    7.885      566
    7.900      586
    7.915      549
    7.930      524
    7.945      571
    7.960      541
    7.975      552
    7.990      547
    8.005      544
    8.020      534
    8.035      514
    8.050      513
    8.065      544
    8.080      528
    8.095      535
    8.110      573
    8.125      577
    8.140      546
    8.155      509
    8.170      524
    8.185      514
    8.200      540
    8.215      549
    8.230      550
    8.245      576
    8.260      552
    8.275      553
    8.290      593
    8.305      571
    8.320      545
    8.335      522
    8.350      584
    8.365      578
    8.380      580
    8.395      571
    8.410      576
    8.425      600
    8.440      568
    8.455      580
    8.470      608
    8.485      554
    8.500      595
    8.515      594
    8.530      623
    8.545      639
    8.560      612
    8.575      608
    8.590      580
    8.605      558
    8.620      578
    8.635      571
    8.650      594
    8.665      597
    8.680      567
    8.695      573
    8.710      591
    8.725      572
    8.740      560
    8.755      566
    8.770      541
    8.785      538
    8.800      587
    8.815      591
    8.830      607
    8.845      599
    8.860      586
    8.875      543
    8.890      551
    8.905      597
    8.920      596
    8.935      581
    8.950      624
    8.965      564
    8.980      588
    8.995      570
    9.010      570
    9.025      607
    9.040      589
    9.055      589
    9.070      584
    9.085      574
    9.100      587
    9.115      610
    9.130      581
    9.145      616
    9.160      623
    9.175      576
    9.190      614
    9.205      625
    9.220      607
    9.235      579
    9.250      598
    9.265      597
    9.280      582
    9.295      587
    9.310      603
    9.325      600
    9.340      598
    9.355      608
    9.370      587
    9.385      634
    9.400      612
    9.415      617
    9.430      606
    9.445      613
    9.460      625
    9.475      624
    9.490      572
    9.505      617
    9.520      609
    9.535      623
    9.550      579
    9.565      622
    9.580      614
    9.595      597
    9.610      600
    9.625      623
    9.640      604
    9.655      637
    9.670      669
    9.685      678
    9.700      654
    9.715      647
    9.730      696
    9.745      668
    9.760      700
    9.775      718
    9.790      715
    9.805      742
    9.820      718
    9.835      683
    9.850      648
    9.865      636
    9.880      600
    9.895      595
    9.910      670
    9.925      633
    9.940      614
    9.955      623
    9.970      614
    9.985      602
   10.000      629
   10.015      633
   10.030      620
   10.045      626
   10.060      635
   10.075      659
   10.090      633
   10.105      616
   10.120      575
   10.135      598
   10.150      634
   10.165      641
   10.180      623
   10.195      638
   10.210      636
   10.225      648
   10.240      638
   10.255      630
   10.270      650
   10.285      692
   10.300      689
   10.315      634
   10.330      662
   10.345      712
   10.360      702
   10.375      765
   10.390      814
   10.405      850
   10.420      922
   10.435      997
   10.450     1171
   10.465     1146
   10.480      994
   10.495      864
   10.510      711
   10.525      658
   10.540      645
   10.555      661
   10.570      656
   10.585      671
   10.600      708
   10.615      685
   10.630      672
   10.645      709
   10.660      706
   10.675      743
   10.690      768
   10.705      781
   10.720      804
   10.735      904
   10.750      938
   10.765     1014
   10.780      963
   10.795     1045
   10.810     1161
   10.825     1370
   10.840     1623
   10.855     1625
   10.870     1343
   10.885     1029
   10.900      754
   10.915      685
   10.930      659
   10.945      667
   10.960      654
   10.975      636
   10.990      624
   11.005      623
   11.020      657
   11.035      676
   11.050      708
   11.065      653
   11.080      670
   11.095      694
   11.110      731
   11.125      759
   11.140      826
   11.155      820
   11.170      854
   11.185     1008
   11.200     1134
   11.215     1241
   11.230     1231
   11.245     1134
   11.260      915
   11.275      777
   11.290      686
   11.305      710
   11.320      712
   11.335      741
   11.350      733
   11.365      798
   11.380      807
   11.395      866
   11.410      866
   11.425      841
   11.440      780
   11.455      679
   11.470      621
   11.485      611
   11.500      592
   11.515      639
   11.530      646
   11.545      600
   11.560      569
   11.575      595
   11.590      597
   11.605      563
   11.620      580
   11.635      621
   11.650      631
   11.665      641
   11.680      609
   11.695      602
   11.710      634
   11.725      682
   11.740      683
   11.755      649
   11.770      692
   11.785      738
   11.800      769
   11.815      844
   11.830      891
   11.845      914
   11.860     1006
   11.875      975
   11.890      872
   11.905      784
   11.920      705
   11.935      658
   11.950      623
   11.965      654
   11.980      704
   11.995      700
   12.010      766
   12.025      778
   12.040      824
   12.055      862
   12.070      800
   12.085      707
   12.100      624
   12.115      603
   12.130      595
   12.145      655
   12.160      655
   12.175      631
   12.190      609
   12.205      622
   12.220      599
   12.235      612
   12.250      601
   12.265      581
   12.280      597
   12.295      630
   12.310      635
   12.325      620
   12.340      636
   12.355      660
   12.370      676
   12.385      698
   12.400      691
   12.415      679
   12.430      717
   12.445      784
   12.460      793
   12.475      828
   12.490      914
   12.505      993
   12.520     1225
   12.535     1405
   12.550     1494
   12.565     1743
   12.580     2002
   12.595     2315
   12.610     2841
   12.625     3608
   12.640     4576
   12.655     5392
   12.670     5071
   12.685     4075
   12.700     3249
   12.715     3267
   12.730     3579
   12.745     3703
   12.760     3268
   12.775     2542
   12.790     1728
   12.805     1186
   12.820      938
   12.835      819
   12.850      837
   12.865      834
   12.880      840
   12.895      822
   12.910      915
   12.925      950
   12.940     1071
   12.955     1174
   12.970     1324
   12.985     1456
   13.000     1727
   13.015     2082
   13.030     2700
   13.045     3032
   13.060     2781
   13.075     2192
   13.090     1777
   13.105     1649
   13.120     1840
   13.135     2153
   13.150     2529
   13.165     2991
   13.180     3762
   13.195     4832
   13.210     6215
   13.225     7425
   13.240     7147
   13.255     6007
   13.270     5316
   13.285     5575
   13.300     6863
   13.315     8838
   13.330    11285
   13.345    13840
   13.360    13397
   13.375     9314
   13.390     4963
   13.405     2481
   13.420     1764
   13.435     1476
   13.450     1403
   13.465     1388
   13.480     1442
   13.495     1589
   13.510     1823
   13.525     2109
   13.540     2501
   13.555     3140
   13.570     3561
   13.585     3579
   13.600     3675
   13.615     3700
   13.630     3261
   13.645     2316
   13.660     1554
   13.675     1110
   13.690      931
   13.705      853
   13.720      831
   13.735      848
   13.750      843
   13.765      843
   13.780      893
   13.795      956
   13.810      990
   13.825     1093
   13.840     1258
   13.855     1357
   13.870     1259
   13.885     1075
   13.900      867
   13.915      749
   13.930      696
   13.945      698
   13.960      661
   13.975      694
   13.990      721
   14.005      692
   14.020      695
   14.035      714
   14.050      714
   14.065      703
   14.080      696
   14.095      721
   14.110      720
   14.125      699
   14.140      743
   14.155      778
   14.170      824
   14.185      845
   14.200      864
   14.215      917
   14.230      987
   14.245     1101
   14.260     1217
   14.275     1395
   14.290     1678
   14.305     1970
   14.320     2021
   14.335     1938
   14.350     1782
   14.365     1776
   14.380     1857
   14.395     1989
   14.410     1968
   14.425     1886
   14.440     1819
   14.455     1851
   14.470     2156
   14.485     2655
   14.500     3223
   14.515     3417
   14.530     3018
   14.545     2216
   14.560     1466
   14.575     1006
   14.590      867
   14.605      804
   14.620      781
   14.635      776
   14.650      792
   14.665      757
   14.680      698
   14.695      724
   14.710      738
   14.725      694
   14.740      708
   14.755      735
   14.770      713
   14.785      727
   14.800      711
   14.815      750
   14.830      789
   14.845      762
   14.860      813
   14.875      867
   14.890      918
   14.905     1054
   14.920     1123
   14.935     1249
   14.950     1412
   14.965     1709
   14.980     2035
   14.995     2462
   15.010     3014
   15.025     3427
   15.040     3809
   15.055     4220
   15.070     4951
   15.085     6695
   15.100     8652
   15.115     9246
   15.130     7836
   15.145     5142
   15.160     2870
   15.175     1844
   15.190     1425
   15.205     1393
   15.220     1410
   15.235     1375
   15.250     1488
   15.265     1692
   15.280     1978
   15.295     2338
   15.310     2791
   15.325     3133
   15.340     3099
   15.355     2617
   15.370     2139
   15.385     1975
   15.400     1945
   15.415     1883
   15.430     1625
   15.445     1322
   15.460     1123
   15.475     1082
   15.490     1161
   15.505     1305
   15.520     1396
   15.535     1634
   15.550     1878
   15.565     2283
   15.580     2810
   15.595     3467
   15.610     4008
   15.625     3756
   15.640     3006
   15.655     2138
   15.670     1601
   15.685     1397
   15.700     1383
   15.715     1497
   15.730     1650
   15.745     1813
   15.760     2193
   15.775     2748
   15.790     3205
   15.805     3199
   15.820     2530
   15.835     1831
   15.850     1355
   15.865     1058
   15.880      892
   15.895      880
   15.910      852
   15.925      843
   15.940      803
   15.955      835
   15.970      869
   15.985      944
   16.000     1022
   16.015     1162
   16.030     1260
   16.045     1386
   16.060     1522
   16.075     1854
   16.090     2385
   16.105     3022
   16.120     3671
   16.135     3994
   16.150     3951
   16.165     3319
   16.180     2417
   16.195     1702
   16.210     1240
   16.225     1075
   16.240     1117
   16.255     1150
   16.270     1184
   16.285     1398
   16.300     1626
   16.315     1932
   16.330     2100
   16.345     2072
   16.360     2047
   16.375     2257
   16.390     2708
   16.405     3218
   16.420     4190
   16.435     5209
   16.450     5206
   16.465     4280
   16.480     3195
   16.495     2473
   16.510     2278
   16.525     2547
   16.540     3121
   16.555     3854
   16.570     4172
   16.585     3855
   16.600     3271
   16.615     2691
   16.630     2402
   16.645     2324
   16.660     2435
   16.675     2753
   16.690     3348
   16.705     4087
   16.720     4368
   16.735     4108
   16.750     3527
   16.765     3156
   16.780     3315
   16.795     3623
   16.810     3681
   16.825     3681
   16.840     3217
   16.855     2586
   16.870     1807
   16.885     1354
   16.900     1119
   16.915     1021
   16.930     1061
   16.945     1052
   16.960     1246
   16.975     1313
   16.990     1439
   17.005     1645
   17.020     1975
   17.035     2222
   17.050     2355
   17.065     2043
   17.080     1724
   17.095     1470
   17.110     1367
   17.125     1437
   17.140     1482
   17.155     1635
   17.170     1839
   17.185     2144
   17.200     2442
   17.215     2835
   17.230     3068
   17.245     3147
   17.260     2774
   17.275     2252
   17.290     1784
   17.305     1464
   17.320     1391
   17.335     1394
   17.350     1400
   17.365     1287
   17.380     1213
   17.395     1163
   17.410     1246
   17.425     1378
   17.440     1619
   17.455     1895
   17.470     2405
   17.485     2685
   17.500     2472
   17.515     1995
   17.530     1462
   17.545     1115
   17.560      969
   17.575      905
   17.590      945
   17.605      964
   17.620      994
   17.635     1098
   17.650     1251
   17.665     1331
   17.680     1459
   17.695     1358
   17.710     1206
   17.725     1171
   17.740     1269
   17.755     1333
   17.770     1371
   17.785     1261
   17.800     1141
   17.815     1082
   17.830      934
   17.845      968
   17.860      963
   17.875      941
   17.890      866
   17.905      822
   17.920      850
   17.935      759
   17.950      762
   17.965      764
   17.980      742
   17.995      720
   18.010      708
   18.025      714
   18.040      710
   18.055      782
   18.070      752
   18.085      726
   18.100      715
   18.115      772
   18.130      759
   18.145      826
   18.160      861
   18.175      875
   18.190      941
   18.205     1045
   18.220     1209
   18.235     1398
   18.250     1459
   18.265     1602
   18.280     1800
   18.295     2033
   18.310     2253
   18.325     2139
   18.340     1771
   18.355     1441
   18.370     1136
   18.385     1026
   18.400     1002
   18.415      923
   18.430      996
   18.445     1006
   18.460     1009
   18.475     1002
   18.490     1001
   18.505     1051
   18.520     1109
   18.535     1246
   18.550     1464
   18.565     1665
   18.580     1849
   18.595     1854
   18.610     1718
   18.625     1646
   18.640     1667
   18.655     1874
   18.670     2160
   18.685     2362
   18.700     2217
   18.715     1995
   18.730     1722
   18.745     1507
   18.760     1324
   18.775     1093
   18.790      969
   18.805      950
   18.820     1003
   18.835     1010
   18.850     1147
   18.865     1210
   18.880     1426
   18.895     1569
   18.910     1669
   18.925     1614
   18.940     1413
   18.955     1250
   18.970     1262
   18.985     1250
   19.000     1209
   19.015     1113
   19.030      993
   19.045      913
   19.060      820
   19.075      831
   19.090      876
   19.105      868
   19.120      830
   19.135      805
   19.150      725
   19.165      733
   19.180      729
   19.195      739
   19.210      735
   19.225      762
   19.240      757
   19.255      730
   19.270      706
   19.285      700
   19.300      715
   19.315      686
   19.330      701
   19.345      720
   19.360      730
   19.375      699
   19.390      718
   19.405      692
   19.420      681
   19.435      731
   19.450      780
   19.465      769
   19.480      816
   19.495      834
   19.510      910
   19.525      941
   19.540     1049
   19.555     1163
   19.570     1322
   19.585     1613
   19.600     1787
   19.615     1877
   19.630     1830
   19.645     1814
   19.660     1673
   19.675     1438
   19.690     1230
   19.705     1053
   19.720      982
   19.735      902
   19.750      996
   19.765     1005
   19.780     1040
   19.795     1273
   19.810     1489
   19.825     1729
   19.840     2102
   19.855     2569
   19.870     3349
   19.885     4247
   19.900     4963
   19.915     4848
   19.930     3876
   19.945     2841
   19.960     2142
   19.975     1980
   19.990     2140
   20.005     2411
   20.020     2745
   20.035     2828
   20.050     2782
   20.065     2551
   20.080     2115
   20.095     1874
   20.110     1458
   20.125     1166
   20.140      974
   20.155      951
   20.170      897
   20.185      995
   20.200     1029
   20.215     1076
   20.230     1205
   20.245     1247
   20.260     1138
   20.275     1003
   20.290      893
   20.305      844
   20.320      834
   20.335      706
   20.350      668
   20.365      705
   20.380      707
   20.395      676
   20.410      712
   20.425      745
   20.440      735
   20.455      745
   20.470      772
   20.485      777
   20.500      782
   20.515      816
   20.530      790
   20.545      829
   20.560      868
   20.575      934
   20.590     1050
   20.605      956
   20.620      828
   20.635      797
   20.650      807
   20.665      822
   20.680      836
   20.695      868
   20.710      950
   20.725     1111
   20.740     1241
   20.755     1435
   20.770     1685
   20.785     1855
   20.800     1836
   20.815     1800
   20.830     1776
   20.845     1864
   20.860     2037
   20.875     2094
   20.890     1840
   20.905     1590
   20.920     1323
   20.935     1016
   20.950      868
   20.965      890
   20.980      871
   20.995      929
   21.010      883
   21.025      887
   21.040      812
   21.055      741
   21.070      743
   21.085      747
   21.100      781
   21.115      776
   21.130      785
   21.145      787
   21.160      797
   21.175      813
   21.190      837
   21.205      871
   21.220      992
   21.235     1003
   21.250     1124
   21.265     1085
   21.280      983
   21.295      877
   21.310      780
   21.325      705
   21.340      708
   21.355      717
   21.370      695
   21.385      726
   21.400      759
   21.415      763
   21.430      744
   21.445      789
   21.460      841
   21.475      873
   21.490      904
   21.505      999
   21.520     1075
   21.535     1214
   21.550     1381
   21.565     1705
   21.580     2107
   21.595     2332
   21.610     2376
   21.625     2160
   21.640     1901
   21.655     1601
   21.670     1569
   21.685     1540
   21.700     1638
   21.715     1893
   21.730     2334
   21.745     3009
   21.760     3926
   21.775     5075
   21.790     5848
   21.805     6078
   21.820     5222
   21.835     3887
   21.850     2621
   21.865     1929
   21.880     1755
   21.895     1669
   21.910     1659
   21.925     1482
   21.940     1304
   21.955     1160
   21.970     1002
   21.985      852
   22.000      804
   22.015      759
   22.030      759
   22.045      751
   22.060      737
   22.075      738
   22.090      783
   22.105      756
   22.120      761
   22.135      765
   22.150      765
   22.165      793
   22.180      833
   22.195      800
   22.210      785
   22.225      786
   22.240      798
   22.255      900
   22.270      986
   22.285      986
   22.300     1017
   22.315      982
   22.330      955
   22.345     1039
   22.360     1178
   22.375     1303
   22.390     1426
   22.405     1370
   22.420     1247
   22.435     1188
   22.450     1025
   22.465      885
   22.480      852
   22.495      863
   22.510      981
   22.525     1100
   22.540     1211
   22.555     1322
   22.570     1495
   22.585     1642
   22.600     1840
   22.615     1956
   22.630     1892
   22.645     1713
   22.660     1374
   22.675     1204
   22.690     1102
   22.705     1120
   22.720     1207
   22.735     1241
   22.750     1367
   22.765     1540
   22.780     1842
   22.795     2042
   22.810     2262
   22.825     2278
   22.840     2274
   22.855     2191
   22.870     2075
   22.885     1916
   22.900     1733
   22.915     1555
   22.930     1345
   22.945     1102
   22.960     1000
   22.975      907
   22.990      913
   23.005      949
   23.020      998
   23.035     1099
   23.050     1228
   23.065     1363
   23.080     1367
   23.095     1213
   23.110     1150
   23.125     1079
   23.140     1098
   23.155     1214
   23.170     1341
   23.185     1474
   23.200     1562
   23.215     1393
   23.230     1196
   23.245     1023
   23.260      947
   23.275      840
   23.290      762
   23.305      747
   23.320      795
   23.335      825
   23.350      800
   23.365      867
   23.380      880
   23.395      925
   23.410      939
   23.425      873
   23.440      799
   23.455      727
   23.470      679
   23.485      677
   23.500      660
   23.515      644
   23.530      695
   23.545      695
   23.560      725
   23.575      699
   23.590      746
   23.605      728
   23.620      726
   23.635      725
   23.650      712
   23.665      709
   23.680      719
   23.695      676
   23.710      701
   23.725      704
   23.740      715
   23.755      747
   23.770      763
   23.785      823
   23.800      894
   23.815      931
   23.830      926
   23.845      902
   23.860      875
   23.875      825
   23.890      804
   23.905      803
   23.920      839
   23.935      925
   23.950      983
   23.965     1092
   23.980     1190
   23.995     1266
   24.010     1179
   24.025     1088
   24.040      914
   24.055      790
   24.070      741
   24.085      754
   24.100      729
   24.115      715
   24.130      747
   24.145      775
   24.160      826
   24.175      871
   24.190      967
   24.205     1128
   24.220     1235
   24.235     1274
   24.250     1317
   24.265     1161
   24.280      980
   24.295      933
   24.310      820
   24.325      757
   24.340      773
   24.355      821
   24.370      819
   24.385      799
   24.400      802
   24.415      818
   24.430      871
   24.445      954
   24.460      966
   24.475      948
   24.490      883
   24.505      901
   24.520      891
   24.535     1004
   24.550     1000
   24.565      977
   24.580      995
   24.595     1011
   24.610     1021
   24.625     1072
   24.640     1075
   24.655      992
   24.670      934
   24.685      891
   24.700      881
   24.715      879
   24.730      874
   24.745      915
   24.760      908
   24.775      855
   24.790      734
   24.805      772
   24.820      758
   24.835      692
   24.850      695
   24.865      760
   24.880      832
   24.895      882
   24.910      970
   24.925     1133
   24.940     1197
   24.955     1347
   24.970     1284
   24.985     1205
   25.000     1053
   25.015      957
   25.030      906
   25.045      927
   25.060      959
   25.075      954
   25.090      908
   25.105      881
   25.120      942
   25.135     1053
   25.150     1159
   25.165     1223
   25.180     1183
   25.195     1108
   25.210     1006
   25.225      949
   25.240      835
   25.255      752
   25.270      780
   25.285      708
   25.300      737
   25.315      787
   25.330      794
   25.345      900
   25.360     1039
   25.375     1169
   25.390     1303
   25.405     1389
   25.420     1338
   25.435     1243
   25.450     1161
   25.465     1107
   25.480     1032
   25.495      956
   25.510      938
   25.525      928
   25.540      950
   25.555     1004
   25.570     1120
   25.585     1241
   25.600     1452
   25.615     1695
   25.630     1883
   25.645     1967
   25.660     2199
   25.675     2130
   25.690     1926
   25.705     1604
   25.720     1320
   25.735     1157
   25.750     1049
   25.765     1020
   25.780     1068
   25.795     1045
   25.810     1109
   25.825     1214
   25.840     1378
   25.855     1611
   25.870     1544
   25.885     1438
   25.900     1296
   25.915     1147
   25.930     1047
   25.945      932
   25.960      877
   25.975      946
   25.990      926
   26.005      920
   26.020      926
   26.035      965
   26.050      958
   26.065     1022
   26.080      998
   26.095     1023
   26.110     1153
   26.125     1232
   26.140     1316
   26.155     1207
   26.170     1126
   26.185     1018
   26.200      881
   26.215      812
   26.230      763
   26.245      763
   26.260      815
   26.275      794
   26.290      849
   26.305      881
   26.320      921
   26.335      937
   26.350      973
   26.365      952
   26.380      867
   26.395      830
   26.410      764
   26.425      747
   26.440      781
   26.455      741
   26.470      760
   26.485      741
   26.500      750
   26.515      748
   26.530      740
   26.545      778
   26.560      823
   26.575      876
   26.590      935
   26.605     1053
   26.620     1146
   26.635     1172
   26.650     1158
   26.665     1060
   26.680      906
   26.695      831
   26.710      870
   26.725      774
   26.740      771
   26.755      752
   26.770      794
   26.785      759
   26.800      883
   26.815      953
   26.830     1071
   26.845     1211
   26.860     1412
   26.875     1626
   26.890     1779
   26.905     1818
   26.920     1642
   26.935     1614
   26.950     1662
   26.965     1646
   26.980     1628
   26.995     1439
   27.010     1257
   27.025     1069
   27.040      975
   27.055      939
   27.070      897
   27.085      818
   27.100      892
   27.115      862
   27.130      837
   27.145      850
   27.160      836
   27.175      880
   27.190      958
   27.205      901
   27.220      945
   27.235      975
   27.250      897
   27.265      854
   27.280      857
   27.295      875
   27.310      880
   27.325      925
   27.340      952
   27.355      929
   27.370     1013
   27.385      997
   27.400      983
   27.415     1062
   27.430     1084
   27.445     1144
   27.460     1248
   27.475     1345
   27.490     1450
   27.505     1541
   27.520     1584
   27.535     1626
   27.550     1704
   27.565     1761
   27.580     1791
   27.595     1906
   27.610     1831
   27.625     1671
   27.640     1592
   27.655     1521
   27.670     1499
   27.685     1395
   27.700     1259
   27.715     1147
   27.730      993
   27.745      993
   27.760      938
   27.775      998
   27.790     1046
   27.805     1150
   27.820     1208
   27.835     1317
   27.850     1334
   27.865     1412
   27.880     1313
   27.895     1229
   27.910     1224
   27.925     1112
   27.940      980
   27.955      915
   27.970      877
   27.985      792
   28.000      768
   28.015      818
   28.030      824
   28.045      848
   28.060      880
   28.075      964
   28.090     1071
   28.105     1124
   28.120     1131
   28.135     1028
   28.150     1022
   28.165      978
   28.180      976
   28.195      959
   28.210      969
   28.225      966
   28.240      978
   28.255      951
   28.270      984
   28.285     1016
   28.300     1054
   28.315     1097
   28.330     1047
   28.345     1044
   28.360     1079
   28.375     1098
   28.390     1084
   28.405     1051
   28.420      998
   28.435      941
   28.450      860
   28.465      828
   28.480      758
   28.495      779
   28.510      775
   28.525      761
   28.540      779
   28.555      782
   28.570      796
   28.585      820
   28.600      821
   28.615      892
   28.630      951
   28.645      989
   28.660      972
   28.675      963
   28.690      969
   28.705      902
   28.720      924
   28.735      903
   28.750      890
   28.765      900
   28.780      834
   28.795      889
   28.810      921
   28.825      972
   28.840     1000
   28.855     1072
   28.870     1088
   28.885     1079
   28.900     1118
   28.915     1120
   28.930     1154
   28.945     1129
   28.960     1103
   28.975     1071
   28.990     1029
   29.005     1065
   29.020     1137
   29.035     1191
   29.050     1146
   29.065     1105
   29.080     1029
   29.095      967
   29.110      963
   29.125      970
   29.140      915
   29.155      911
   29.170      946
   29.185      988
   29.200     1040
   29.215      996
   29.230      950
   29.245      903
   29.260      841
   29.275      853
   29.290      824
   29.305      878
   29.320      875
   29.335      789
   29.350      817
   29.365      801
   29.380      797
   29.395      770
   29.410      793
   29.425      817
   29.440      881
   29.455      920
   29.470      938
   29.485      962
   29.500      998
   29.515     1013
   29.530     1034
   29.545      980
   29.560     1008
   29.575      982
   29.590     1066
   29.605     1167
   29.620     1222
   29.635     1381
   29.650     1420
   29.665     1360
   29.680     1235
   29.695     1139
   29.710     1119
   29.725     1061
   29.740      997
   29.755      981
   29.770      925
   29.785      915
   29.800      917
   29.815      920
   29.830      908
   29.845      843
   29.860      906
   29.875      872
   29.890      820
   29.905      813
   29.920      789
   29.935      779
   29.950      747
   29.965      760
   29.980      781
   29.995      768
   30.010      813
   30.025      774
   30.040      779
   30.055      750
   30.070      809
   30.085      778
   30.100      718
   30.115      732
   30.130      750
   30.145      772
   30.160      764
   30.175      779
   30.190      775
   30.205      744
   30.220      756
   30.235      796
   30.250      861
   30.265      818
   30.280      783
   30.295      789
   30.310      740
   30.325      799
   30.340      849
   30.355      802
   30.370      791
   30.385      817
   30.400      823
   30.415      784
   30.430      804
   30.445      873
   30.460      845
   30.475      898
   30.490      925
   30.505      986
   30.520     1013
   30.535     1015
   30.550     1058
   30.565     1063
   30.580     1095
   30.595     1126
   30.610     1098
   30.625     1075
   30.640     1000
   30.655      938
   30.670      851
   30.685      850
   30.700      796
   30.715      728
   30.730      791
   30.745      743
   30.760      785
   30.775      777
   30.790      781
   30.805      765
   30.820      825
   30.835      829
   30.850      845
   30.865      972
   30.880     1028
   30.895     1053
   30.910     1064
   30.925     1116
   30.940     1095
   30.955     1192
   30.970     1177
   30.985     1153
   31.000     1087
   31.015     1052
   31.030      933
   31.045      927
   31.060      901
   31.075      879
   31.090      903
   31.105      916
   31.120      906
   31.135      884
   31.150      845
   31.165      890
   31.180      884
   31.195      889
   31.210      874
   31.225      860
   31.240      839
   31.255      858
   31.270      892
   31.285      877
   31.300      954
   31.315      968
   31.330      946
   31.345      958
   31.360      904
   31.375      944
   31.390      914
   31.405      911
   31.420      894
   31.435      836
   31.450      837
   31.465      902
   31.480      931
   31.495      988
   31.510     1056
   31.525     1093
   31.540     1125
   31.555     1076
   31.570     1066
   31.585      997
   31.600     1005
   31.615      973
   31.630      954
   31.645      996
   31.660     1033
   31.675     1045
   31.690     1070
   31.705     1107
   31.720     1075
   31.735     1057
   31.750     1102
   31.765     1122
   31.780      999
   31.795     1006
   31.810     1106
   31.825     1112
   31.840     1185
   31.855     1193
   31.870     1174
   31.885     1128
   31.900     1072
   31.915     1003
   31.930      987
   31.945      962
   31.960      955
   31.975      969
   31.990      932
   32.005      918
   32.020      869
   32.035      847
   32.050      887
   32.065      941
   32.080     1000
   32.095      983
   32.110      954
   32.125      930
   32.140      893
   32.155      873
   32.170      832
   32.185      815
   32.200      792
   32.215      773
   32.230      800
   32.245      800
   32.260      803
   32.275      743
   32.290      828
   32.305      817
   32.320      767
   32.335      786
   32.350      826
   32.365      845
   32.380      935
   32.395      849
   32.410      830
   32.425      772
   32.440      782
   32.455      724
   32.470      690
   32.485      730
   32.500      721
   32.515      744
   32.530      766
   32.545      736
   32.560      744
   32.575      752
   32.590      720
   32.605      772
   32.620      762
   32.635      762
   32.650      780
   32.665      801
   32.680      777
   32.695      733
   32.710      729
   32.725      715
   32.740      726
   32.755      715
   32.770      763
   32.785      780
   32.800      788
   32.815      787
   32.830      795
   32.845      796
   32.860      910
   32.875      947
   32.890     1018
   32.905     1086
   32.920     1120
   32.935     1141
   32.950     1135
   32.965     1196
   32.980     1135
   32.995     1027
   33.010      955
   33.025      956
   33.040      857
   33.055      882
   33.070      828
   33.085      829
   33.100      839
   33.115      861
   33.130      819
   33.145      807
   33.160      846
   33.175      881
   33.190      854
   33.205      833
   33.220      840
   33.235      842
   33.250      833
   33.265      804
   33.280      748
   33.295      772
   33.310      852
   33.325      889
   33.340      874
   33.355      895
   33.370      901
   33.385      894
   33.400      954
   33.415     1067
   33.430     1115
   33.445     1216
   33.460     1265
   33.475     1218
   33.490     1248
   33.505     1167
   33.520     1099
   33.535     1032
   33.550     1045
   33.565     1010
   33.580      994
   33.595      937
   33.610      956
   33.625      918
   33.640      924
   33.655      876
   33.670      867
   33.685      922
   33.700      917
   33.715      941
   33.730     1026
   33.745     1087
   33.760     1168
   33.775     1276
   33.790     1293
   33.805     1319
   33.820     1203
   33.835     1135
   33.850      990
   33.865      933
   33.880      907
   33.895      942
   33.910      963
   33.925      986
   33.940     1021
   33.955     1044
   33.970     1017
   33.985     1037
   34.000     1014
   34.015     1034
   34.030      940
   34.045      982
   34.060     1019
   34.075      900
   34.090      931
   34.105      849
   34.120      845
   34.135      836
   34.150      814
   34.165      830
   34.180      797
   34.195      782
   34.210      760
   34.225      752
   34.240      709
   34.255      713
   34.270      765
   34.285      714
   34.300      699
   34.315      693
   34.330      732
   34.345      717
   34.360      714
   34.375      792
   34.390      776
   34.405      780
   34.420      804
   34.435      835
   34.450      892
   34.465      939
   34.480      927
   34.495      927
   34.510      913
   34.525      880
   34.540      858
   34.555      834
   34.570      796
   34.585      805
   34.600      768
   34.615      714
   34.630      745
   34.645      718
   34.660      758
   34.675      768
   34.690      775
   34.705      812
   34.720      847
   34.735      794
   34.750      847
   34.765      829
   34.780      810
   34.795      793
   34.810      799
   34.825      795
   34.840      822
   34.855      795
   34.870      770
   34.885      789
   34.900      776
   34.915      733
   34.930      751
   34.945      773
   34.960      830
   34.975      813
   34.990      807
   35.005      802
   35.020      851
   35.035      896
   35.050      939
   35.065      898
   35.080      888
   35.095      854
   35.110      851
   35.125      861
   35.140      862
   35.155      883
   35.170      961
   35.185      903
   35.200      932
   35.215      952
   35.230      979
   35.245     1031
   35.260     1045
   35.275     1069
   35.290     1095
   35.305     1055
   35.320     1101
   35.335     1082
   35.350     1120
   35.365     1109
   35.380     1196
   35.395     1248
   35.410     1229
   35.425     1201
   35.440     1144
   35.455     1094
   35.470     1087
   35.485     1093
   35.500     1112
   35.515     1155
   35.530     1223
   35.545     1285
   35.560     1328
   35.575     1260
   35.590     1172
   35.605     1087
   35.620     1071
   35.635      978
   35.650      969
   35.665      926
   35.680      873
   35.695      857
   35.710      803
   35.725      798
   35.740      768
   35.755      751
   35.770      730
   35.785      758
   35.800      731
   35.815      699
   35.830      677
   35.845      692
   35.860      731
   35.875      715
   35.890      694
   35.905      727
   35.920      726
   35.935      721
   35.950      699
   35.965      717
   35.980      722
   35.995      679
   36.010      716
   36.025      751
   36.040      771
   36.055      732
   36.070      766
   36.085      771
   36.100      742
   36.115      799
   36.130      791
   36.145      758
   36.160      744
   36.175      759
   36.190      776
   36.205      824
   36.220      884
   36.235      925
   36.250      931
   36.265      862
   36.280      888
   36.295      872
   36.310      767
   36.325      735
   36.340      738
   36.355      740
   36.370      706
   36.385      714
   36.400      713
   36.415      703
   36.430      716
   36.445      719
   36.460      722
   36.475      708
   36.490      758
   36.505      771
   36.520      755
   36.535      731
   36.550      760
   36.565      752
   36.580      742
   36.595      694
   36.610      688
   36.625      689
   36.640      752
   36.655      747
   36.670      785
   36.685      836
   36.700      831
   36.715      910
   36.730      915
   36.745      876
   36.760      882
   36.775      797
   36.790      775
   36.805      781
   36.820      771
   36.835      776
   36.850      768
   36.865      754
   36.880      773
   36.895      773
   36.910      764
   36.925      750
   36.940      756
   36.955      756
   36.970      789
   36.985      770
   37.000      743
   37.015      817
   37.030      838
   37.045      837
   37.060      873
   37.075      802
   37.090      791
   37.105      790
   37.120      765
   37.135      743
   37.150      746
   37.165      757
   37.180      813
   37.195      849
   37.210      830
   37.225      862
   37.240      866
   37.255      953
   37.270      900
   37.285      876
   37.300      863
   37.315      812
   37.330      740
   37.345      758
   37.360      711
   37.375      667
   37.390      705
   37.405      701
   37.420      674
   37.435      704
   37.450      683
   37.465      636
   37.480      660
   37.495      654
   37.510      673
   37.525      681
   37.540      671
   37.555      687
   37.570      679
   37.585      687
   37.600      700
   37.615      712
   37.630      701
   37.645      717
   37.660      707
   37.675      709
   37.690      687
   37.705      694
   37.720      687
   37.735      695
   37.750      708
   37.765      727
   37.780      728
   37.795      760
   37.810      764
   37.825      765
   37.840      759
   37.855      758
   37.870      773
   37.885      728
   37.900      717
   37.915      760
   37.930      764
   37.945      781
   37.960      842
   37.975      859
   37.990      884
   38.005      872
   38.020      827
   38.035      794
   38.050      713
   38.065      720
   38.080      718
   38.095      715
   38.110      706
   38.125      738
   38.140      767
   38.155      797
   38.170      764
   38.185      770
   38.200      793
   38.215      780
   38.230      709
   38.245      707
   38.260      744
   38.275      748
   38.290      769
   38.305      804
   38.320      835
   38.335      952
   38.350     1031
   38.365      988
   38.380      936
   38.395      859
   38.410      862
   38.425      778
   38.440      805
   38.455      744
   38.470      704
   38.485      763
   38.500      767
   38.515      720
   38.530      761
   38.545      771
   38.560      763
   38.575      777
   38.590      814
   38.605      871
   38.620      850
   38.635      821
   38.650      782
   38.665      775
   38.680      777
   38.695      751
   38.710      743
   38.725      725
   38.740      720
   38.755      715
   38.770      763
   38.785      732
   38.800      745
   38.815      748
   38.830      732
   38.845      795
   38.860      802
   38.875      744
   38.890      785
   38.905      769
   38.920      758
   38.935      786
   38.950      732
   38.965      758
   38.980      689
   38.995      725
   39.010      717
   39.025      674
   39.040      741
   39.055      697
   39.070      720
   39.085      709
   39.100      746
   39.115      725
   39.130      707
   39.145      682
   39.160      682
   39.175      689
   39.190      629
   39.205      680
   39.220      693
   39.235      695
   39.250      728
   39.265      716
   39.280      712
   39.295      703
   39.310      672
   39.325      670
   39.340      646
   39.355      639
   39.370      662
   39.385      647
   39.400      656
   39.415      653
   39.430      675
   39.445      659
   39.460      690
   39.475      639
   39.490      671
   39.505      652
   39.520      684
   39.535      677
   39.550      645
   39.565      626
   39.580      654
   39.595      644
   39.610      661
   39.625      699
   39.640      676
   39.655      713
   39.670      723
   39.685      714
   39.700      737
   39.715      707
   39.730      744
   39.745      759
   39.760      738
   39.775      753
   39.790      755
   39.805      743
   39.820      752
   39.835      765
   39.850      789
   39.865      749
   39.880      730
   39.895      761
   39.910      732
   39.925      702
   39.940      712
   39.955      680
   39.970      686
   39.985      657
   40.000      653
   40.015      594
   40.030      656
   40.045      659
   40.060      683
   40.075      688
   40.090      653
   40.105      673
   40.120      683
   40.135      658
   40.150      668
   40.165      628
   40.180      655
   40.195      624
   40.210      637
   40.225      661
   40.240      603
   40.255      638
   40.270      681
   40.285      692
   40.300      668
   40.315      667
   40.330      672
   40.345      681
   40.360      705
   40.375      711
   40.390      720
   40.405      692
   40.420      766
   40.435      788
   40.450      780
   40.465      808
   40.480      790
   40.495      772
   40.510      771
   40.525      731
   40.540      696
   40.555      686
   40.570      664
   40.585      661
   40.600      688
   40.615      672
   40.630      717
   40.645      701
   40.660      688
   40.675      731
   40.690      764
   40.705      784
   40.720      818
   40.735      828
   40.750      816
   40.765      804
   40.780      786
   40.795      790
   40.810      784
   40.825      791
   40.840      763
   40.855      713
   40.870      725
   40.885      722
   40.900      652
   40.915      647
   40.930      653
   40.945      667
   40.960      650
   40.975      614
   40.990      630
   41.005      646
   41.020      654
   41.035      630
   41.050      635
   41.065      665
   41.080      692
   41.095      669
   41.110      661
   41.125      628
   41.140      633
   41.155      638
   41.170      686
   41.185      675
   41.200      667
   41.215      641
   41.230      677
   41.245      676
   41.260      608
   41.275      647
   41.290      623
   41.305      636
   41.320      627
   41.335      637
   41.350      641
   41.365      690
   41.380      686
   41.395      656
   41.410      677
   41.425      653
   41.440      650
   41.455      652
   41.470      695
   41.485      673
   41.500      662
   41.515      654
   41.530      650
   41.545      643
   41.560      593
   41.575      628
   41.590      644
   41.605      637
   41.620      694
   41.635      677
   41.650      639
   41.665      667
   41.680      714
   41.695      726
   41.710      696
   41.725      692
   41.740      664
   41.755      692
   41.770      698
   41.785      703
   41.800      727
   41.815      710
   41.830      716
   41.845      683
   41.860      652
   41.875      664
   41.890      647
   41.905      649
   41.920      672
   41.935      650
   41.950      702
   41.965      717
   41.980      733
   41.995      662
   42.010      687
   42.025      670
   42.040      704
   42.055      665
   42.070      658
   42.085      690
   42.100      724
   42.115      677
   42.130      674
   42.145      645
   42.160      669
   42.175      671
   42.190      691
   42.205      646
   42.220      658
   42.235      635
   42.250      667
   42.265      691
   42.280      676
   42.295      685
   42.310      665
   42.325      698
   42.340      709
   42.355      715
   42.370      690
   42.385      658
   42.400      698
   42.415      695
   42.430      693
   42.445      649
   42.460      670
   42.475      726
   42.490      666
   42.505      644
   42.520      615
   42.535      618
   42.550      589
   42.565      569
   42.580      650
   42.595      632
   42.610      628
   42.625      610
   42.640      633
   42.655      627
   42.670      602
   42.685      630
   42.700      636
   42.715      642
   42.730      621
   42.745      629
   42.760      668
   42.775      695
   42.790      651
   42.805      644
   42.820      638
   42.835      627
   42.850      647
   42.865      634
   42.880      616
   42.895      647
   42.910      658
   42.925      639
   42.940      611
   42.955      621
   42.970      640
   42.985      634
   43.000      666
   43.015      638
   43.030      656
   43.045      681
   43.060      634
   43.075      606
   43.090      602
   43.105      659
   43.120      683
   43.135      715
   43.150      682
   43.165      662
   43.180      661
   43.195      664
   43.210      638
   43.225      666
   43.240      642
   43.255      613
   43.270      648
   43.285      627
   43.300      598
   43.315      605
   43.330      621
   43.345      604
   43.360      630
   43.375      629
   43.390      627
   43.405      612
   43.420      622
   43.435      635
   43.450      630
   43.465      630
   43.480      614
   43.495      621
   43.510      631
   43.525      638
   43.540      599
   43.555      616
   43.570      653
   43.585      646
   43.600      658
   43.615      654
   43.630      658
   43.645      649
   43.660      659
   43.675      643
   43.690      662
   43.705      617
   43.720      617
   43.735      624
   43.750      620
   43.765      626
   43.780      585
   43.795      606
   43.810      599
   43.825      623
   43.840      605
   43.855      612
   43.870      655
   43.885      624
   43.900      671
   43.915      716
   43.930      660
   43.945      627
   43.960      637
   43.975      634
   43.990      616
   44.005      642
   44.020      658
   44.035      624
   44.050      635
   44.065      702
   44.080      693
   44.095      688
   44.110      673
   44.125      672
   44.140      664
   44.155      668
   44.170      690
   44.185      678
   44.200      683
   44.215      713
   44.230      646
   44.245      668
   44.260      645
   44.275      657
   44.290      620
   44.305      621
   44.320      675
   44.335      633
   44.350      660
   44.365      629
   44.380      662
   44.395      689
   44.410      682
   44.425      722
   44.440      749
   44.455      712
   44.470      663
   44.485      703
   44.500      648
   44.515      639
   44.530      647
   44.545      661
   44.560      688
   44.575      659
   44.590      625
   44.605      623
   44.620      667
   44.635      682
   44.650      686
   44.665      696
   44.680      735
   44.695      707
   44.710      728
   44.725      695
   44.740      723
   44.755      724
   44.770      733
   44.785      663
   44.800      655
   44.815      635
   44.830      655
   44.845      680
   44.860      667
   44.875      636
   44.890      653
   44.905      700
   44.920      723
   44.935      765
   44.950      739
   44.965      748
   44.980      753
   44.995      756
   45.010      819
   45.025      771
   45.040      773
   45.055      756
   45.070      724
   45.085      730
   45.100      731
   45.115      745
   45.130      742
   45.145      711
   45.160      706
   45.175      651
   45.190      683
   45.205      672
   45.220      653
   45.235      671
   45.250      680
   45.265      658
   45.280      683
   45.295      634
   45.310      630
   45.325      611
   45.340      642
   45.355      654
   45.370      645
   45.385      627
   45.400      660
   45.415      668
   45.430      684
   45.445      676
   45.460      673
   45.475      645
   45.490      681
   45.505      648
   45.520      657
   45.535      640
   45.550      667
   45.565      601
   45.580      639
   45.595      609
   45.610      592
   45.625      621
   45.640      629
   45.655      612
   45.670      577
   45.685      613
   45.700      604
   45.715      590
   45.730      644
   45.745      626
   45.760      592
   45.775      574
   45.790      576
   45.805      602
   45.820      598
   45.835      611
   45.850      625
   45.865      637
   45.880      649
   45.895      614
   45.910      631
   45.925      612
   45.940      643
   45.955      652
   45.970      615
   45.985      626
   46.000      607
   46.015      619
   46.030      628
   46.045      641
   46.060      651
   46.075      641
   46.090      616
   46.105      680
   46.120      622
   46.135      632
   46.150      652
   46.165      669
   46.180      694
   46.195      660
   46.210      651
   46.225      659
   46.240      644
   46.255      647
   46.270      623
   46.285      654
   46.300      618
   46.315      634
   46.330      663
   46.345      633
   46.360      591
   46.375      635
   46.390      606
   46.405      637
   46.420      623
   46.435      629
   46.450      636
   46.465      654
   46.480      654
   46.495      698
   46.510      662
   46.525      633
   46.540      647
   46.555      656
   46.570      632
   46.585      613
   46.600      631
   46.615      630
   46.630      598
   46.645      559
   46.660      615
   46.675      605
   46.690      596
   46.705      592
   46.720      606
   46.735      636
   46.750      570
   46.765      581
   46.780      598
   46.795      595
   46.810      571
   46.825      606
   46.840      586
   46.855      566
   46.870      624
   46.885      606
   46.900      591
   46.915      584
   46.930      623
   46.945      582
   46.960      586
   46.975      563
   46.990      592
   47.005      598
   47.020      577
   47.035      577
   47.050      606
   47.065      629
   47.080      636
   47.095      616
   47.110      606
   47.125      582
   47.140      599
   47.155      577
   47.170      616
   47.185      582
   47.200      564
   47.215      576
   47.230      542
   47.245      537
   47.260      566
   47.275      574
   47.290      596
   47.305      603
   47.320      578
   47.335      591
   47.350      590
   47.365      585
   47.380      545
   47.395      575
   47.410      601
   47.425      591
   47.440      610
   47.455      599
   47.470      579
   47.485      595
   47.500      587
   47.515      628
   47.530      622
   47.545      610
   47.560      601
   47.575      606
   47.590      641
   47.605      596
   47.620      632
   47.635      596
   47.650      601
   47.665      590
   47.680      614
   47.695      617
   47.710      584
   47.725      578
   47.740      604
   47.755      604
   47.770      574
   47.785      594
   47.800      614
   47.815      586
   47.830      568
   47.845      594
   47.860      605
   47.875      604
   47.890      619
   47.905      593
   47.920      620
   47.935      605
   47.950      616
   47.965      597
   47.980      614
   47.995      618
   48.010      590
   48.025      623
   48.040      626
   48.055      611
   48.070      586
   48.085      613
   48.100      604
   48.115      591
   48.130      633
   48.145      605
   48.160      565
   48.175      585
   48.190      580
   48.205      589
   48.220      561
   48.235      606
   48.250      593
   48.265      609
   48.280      609
   48.295      620
   48.310      638
   48.325      636
   48.340      592
   48.355      592
   48.370      577
   48.385      542
   48.400      601
   48.415      606
   48.430      589
   48.445      569
   48.460      588
   48.475      587
   48.490      574
   48.505      580
   48.520      574
   48.535      569
   48.550      532
   48.565      574
   48.580      574
   48.595      576
   48.610      578
   48.625      613
   48.640      576
   48.655      570
   48.670      554
   48.685      565
   48.700      620
   48.715      610
   48.730      574
   48.745      571
   48.760      578
   48.775      582
   48.790      567
   48.805      601
   48.820      606
   48.835      554
   48.850      580
   48.865      570
   48.880      602
   48.895      572
   48.910      546
   48.925      533
   48.940      561
   48.955      591
   48.970      581
   48.985      557
   49.000      533
   49.015      565
   49.030      551
   49.045      563
   49.060      588
   49.075      557
   49.090      559
   49.105      571
   49.120      585
   49.135      605
   49.150      592
   49.165      528
   49.180      568
   49.195      557
   49.210      556
   49.225      575
   49.240      541
   49.255      522
   49.270      536
   49.285      570
   49.300      556
   49.315      526
   49.330      599
   49.345      594
   49.360      552
   49.375      529
   49.390      520
   49.405      575
   49.420      539
   49.435      523
   49.450      529
   49.465      526
   49.480      545
   49.495      523
   49.510      558
   49.525      514
   49.540      568
   49.555      559
   49.570      522
   49.585      540
   49.600      579
   49.615      569
   49.630      570
   49.645      544
   49.660      541
   49.675      558
   49.690      598
   49.705      552
   49.720      575
   49.735      553
   49.750      580
   49.765      556
   49.780      521
   49.795      552
   49.810      548
   49.825      561
   49.840      588
   49.855      590
   49.870      555
   49.885      567
   49.900      585
   49.915      593
   49.930      583
   49.945      571
   49.960      559
   49.975      573
   49.990      568
   50.005      549
   50.020      570
   50.035      567
   50.050      567
   50.065      577
   50.080      562
   50.095      546
   50.110      562
   50.125      592
   50.140      585
   50.155      596
   50.170      572
   50.185      566
   50.200      582
   50.215      549
   50.230      568
   50.245      535
   50.260      531
   50.275      580
   50.290      549
   50.305      525
   50.320      592
   50.335      571
   50.350      557
   50.365      548
   50.380      542
   50.395      557
   50.410      569
   50.425      566
   50.440      555
   50.455      524
   50.470      555
   50.485      554
   50.500      525
   50.515      524
   50.530      560
   50.545      565
   50.560      537
   50.575      544
   50.590      539
   50.605      529
   50.620      546
   50.635      549
   50.650      527
   50.665      532
   50.680      540
   50.695      533
   50.710      589
   50.725      567
   50.740      567
   50.755      555
   50.770      533
   50.785      556
   50.800      579
   50.815      550
   50.830      540
   50.845      567
   50.860      562
   50.875      580
   50.890      559
   50.905      573
   50.920      558
   50.935      560
   50.950      548
   50.965      541
   50.980      531
   50.995      557
   51.010      574
   51.025      525
   51.040      538
   51.055      526
   51.070      538
   51.085      534
   51.100      547
   51.115      526
   51.130      544
   51.145      535
   51.160      518
   51.175      530
   51.190      519
   51.205      559
   51.220      561
   51.235      543
   51.250      545
   51.265      548
   51.280      555
   51.295      571
   51.310      575
   51.325      537
   51.340      545
   51.355      578
   51.370      561
   51.385      603
   51.400      590
   51.415      538
   51.430      531
   51.445      550
   51.460      548
   51.475      560
   51.490      566
   51.505      568
   51.520      574
   51.535      574
   51.550      548
   51.565      543
   51.580      601
   51.595      571
   51.610      557
   51.625      597
   51.640      567
   51.655      544
   51.670      567
   51.685      566
   51.700      605
   51.715      598
   51.730      576
   51.745      565
   51.760      575
   51.775      575
   51.790      574
   51.805      579
   51.820      563
   51.835      570
   51.850      586
   51.865      597
   51.880      563
   51.895      590
   51.910      558
   51.925      559
   51.940      598
   51.955      630
   51.970      588
   51.985      566
   52.000      575
   52.015      592
   52.030      540
   52.045      540
   52.060      597
   52.075      572
   52.090      567
   52.105      567
   52.120      550
   52.135      604
   52.150      554
   52.165      538
   52.180      569
   52.195      548
   52.210      533
   52.225      549
   52.240      478
   52.255      517
   52.270      566
   52.285      559
   52.300      538
   52.315      539
   52.330      522
   52.345      542
   52.360      527
   52.375      516
   52.390      530
   52.405      584
   52.420      554
   52.435      522
   52.450      576
   52.465      570
   52.480      536
   52.495      508
   52.510      503
   52.525      499
   52.540      540
   52.555      547
   52.570      581
   52.585      567
   52.600      574
   52.615      519
   52.630      570
   52.645      531
   52.660      553
   52.675      549
   52.690      558
   52.705      520
   52.720      518
   52.735      571
   52.750      570
   52.765      578
   52.780      546
   52.795      574
   52.810      543
   52.825      572
   52.840      551
   52.855      524
   52.870      558
   52.885      564
   52.900      578
   52.915      594
   52.930      604
   52.945      590
   52.960      567
   52.975      544
   52.990      551
   53.005      574
   53.020      533
   53.035      541
   53.050      575
   53.065      562
   53.080      548
   53.095      530
   53.110      524
   53.125      564
   53.140      537
   53.155      571
   53.170      582
   53.185      575
   53.200      570
   53.215      527
   53.230      541
   53.245      541
   53.260      583
   53.275      569
   53.290      561
   53.305      571
   53.320      588
   53.335      555
   53.350      555
   53.365      596
   53.380      591
   53.395      555
   53.410      549
   53.425      522
   53.440      550
   53.455      576
   53.470      565
   53.485      540
   53.500      567
   53.515      536
   53.530      523
   53.545      515
   53.560      499
   53.575      494
   53.590      527
   53.605      543
   53.620      523
   53.635      525
   53.650      510
   53.665      532
   53.680      566
   53.695      525
   53.710      538
   53.725      534
   53.740      580
   53.755      533
   53.770      547
   53.785      517
   53.800      522
   53.815      527
   53.830      534
   53.845      522
   53.860      533
   53.875      534
   53.890      534
   53.905      544
   53.920      537
   53.935      541
   53.950      536
   53.965      569
   53.980      540
   53.995      574
   54.010      588
   54.025      595
   54.040      554
   54.055      544
   54.070      552
   54.085      578
   54.100      540
   54.115      533
   54.130      524
   54.145      565
   54.160      553
   54.175      545
   54.190      551
   54.205      568
   54.220      554
   54.235      547
   54.250      544
   54.265      560
   54.280      555
   54.295      521
   54.310      537
   54.325      542
   54.340      507
   54.355      550
   54.370      549
   54.385      561
   54.400      513
   54.415      521
   54.430      510
   54.445      547
   54.460      537
   54.475      550
   54.490      539
   54.505      559
   54.520      533
   54.535      544
   54.550      542
   54.565      524
   54.580      545
   54.595      549
   54.610      546
   54.625      533
   54.640      544
   54.655      522
   54.670      516
   54.685      545
   54.700      540
   54.715      548
   54.730      533
   54.745      561
   54.760      521
   54.775      516
   54.790      534
   54.805      544
   54.820      547
   54.835      542
   54.850      548
   54.865      518
   54.880      533
   54.895      562
   54.910      522
