    4.000      200
    4.015      200
    4.030      224
    4.045      207
    4.060      201
    4.075      186
    4.090      207
    4.105      203
    4.120      196
    4.135      186
    4.150      200
    4.165      182
    4.180      207
    4.195      189
    4.210      196
    4.225      199
    4.240      169
    4.255      191
    4.270      217
    4.285      187
    4.300      204
    4.315      201
    4.330      188
    4.345      200
    4.360      196
    4.375      216
    4.390      194
    4.405      191
    4.420      189
    4.435      179
    4.450      200
    4.465      179
    4.480      210
    4.495      196
    4.510      210
    4.525      199
    4.540      170
    4.555      178
    4.570      204
    4.585      199
    4.600      177
    4.615      198
    4.630      194
    4.645      202
    4.660      203
    4.675      186
    4.690      195
    4.705      213
    4.720      202
    4.735      188
    4.750      205
    4.765      183
    4.780      171
    4.795      184
    4.810      205
    4.825      181
    4.840      165
    4.855      179
    4.870      188
    4.885      186
    4.900      197
    4.915      194
    4.930      199
    4.945      175
    4.960      196
    4.975      196
    4.990      190
    5.005      174
    5.020      181
    5.035      173
    5.050      178
    5.065      198
    5.080      186
    5.095      190
    5.110      186
    5.125      186
    5.140      194
    5.155      178
    5.170      183
    5.185      188
    5.200      211
    5.215      201
    5.230      189
    5.245      164
    5.260      171
    5.275      182
    5.290      178
    5.305      167
    5.320      189
    5.335      188
    5.350      188
    5.365      187
    5.380      195
    5.395      180
    5.410      187
    5.425      174
    5.440      182
    5.455      185
    5.470      181
    5.485      170
    5.500      181
    5.515      176
    5.530      182
    5.545      185
    5.560      186
    5.575      181
    5.590      177
    5.605      178
    5.620      200
    5.635      189
    5.650      175
    5.665      176
    5.680      191
    5.695      192
    5.710      167
    5.725      171
    5.740      174
    5.755      167
    5.770      175
    5.785      177
    5.800      169
    5.815      188
    5.830      170
    5.845      177
    5.860      182
    5.875      186
    5.890      191
    5.905      185
    5.920      192
    5.935      199
    5.950      193
    5.965      175
    5.980      190
    5.995      193
    6.010      197
    6.025      189
    6.040      184
    6.055      188
    6.070      172
    6.085      178
    6.100      187
    6.115      181
    6.130      182
    6.145      195
    6.160      177
    6.175      201
    6.190      200
    6.205      203
    6.220      207
    6.235      191
    6.250      190
    6.265      221
    6.280      202
    6.295      189
    6.310      186
    6.325      234
    6.340      243
    6.355      225
    6.370      234
    6.385      244
    6.400      248
    6.415      285
    6.430      256
    6.445      268
    6.460      293
    6.475      318
    6.490      344
    6.505      362
    6.520      423
    6.535      387
    6.550      379
    6.565      435
    6.580      457
    6.595      412
    6.610      334
    6.625      257
    6.640      189
    6.655      151
    6.670      164
    6.685      168
    6.700      185
    6.715      195
    6.730      172
    6.745      180
    6.760      170
    6.775      187
    6.790      201
    6.805      180
    6.820      174
    6.835      182
    6.850      175
    6.865      198
    6.880      185
    6.895      188
    6.910      187
    6.925      202
    6.940      207
    6.955      215
    6.970      201
    6.985      203
    7.000      209
    7.015      200
    7.030      229
    7.045      262
    7.060      247
    7.075      279
    7.090      284
    7.105      283
    7.120      275
    7.135      245
    7.150      184
    7.165      192
    7.180      191
    7.195      177
    7.210      186
    7.225      170
    7.240      155
    7.255      172
    7.270      178
    7.285      174
    7.300      172
    7.315      171
    7.330      166
    7.345      187
    7.360      185
    7.375      183
    7.390      184
    7.405      194
    7.420      199
    7.435      169
    7.450      154
    7.465      190
    7.480      198
    7.495      176
    7.510      197
    7.525      218
    7.540      217
    7.555      239
    7.570      233
    7.585      211
    7.600      193
    7.615      203
    7.630      180
    7.645      175
    7.660      175
    7.675      188
    7.690      161
    7.705      181
    7.720      177
    7.735      184
    7.750      185
    7.765      192
    7.780      167
    7.795      159
    7.810      148
    7.825      177
    7.840      176
    7.855      165
    7.870      169
    7.885      167
    7.900      148
    7.915      173
    7.930      192
    7.945      176
    7.960      167
    7.975      162
    7.990      160
    8.005      182
    8.020      180
    8.035      185
    8.050      174
    8.065      178
    8.080      165
    8.095      162
    8.110      152
    8.125      163
    8.140      174
    8.155      178
    8.170      171
    8.185      179
    8.200      169
    8.215      167
    8.230      167
    8.245      167
    8.260      175
    8.275      164
    8.290      170
    8.305      164
    8.320      162
    8.335      177
    8.350      178
    8.365      178
    8.380      181
    8.395      174
    8.410      188
    8.425      191
    8.440      188
    8.455      183
    8.470      177
    8.485      183
    8.500      182
    8.515      193
    8.530      173
    8.545      166
    8.560      186
    8.575      197
    8.590      200
    8.605      179
    8.620      187
    8.635      185
    8.650      161
    8.665      173
    8.680      188
    8.695      189
    8.710      190
    8.725      158
    8.740      162
    8.755      179
    8.770      182
    8.785      184
    8.800      167
    8.815      185
    8.830      175
    8.845      176
    8.860      190
    8.875      175
    8.890      193
    8.905      174
    8.920      187
    8.935      186
    8.950      191
    8.965      188
    8.980      183
    8.995      174
    9.010      176
    9.025      180
    9.040      184
    9.055      174
    9.070      181
    9.085      184
    9.100      192
    9.115      181
    9.130      170
    9.145      181
    9.160      182
    9.175      194
    9.190      193
    9.205      192
    9.220      187
    9.235      186
    9.250      181
    9.265      170
    9.280      198
    9.295      201
    9.310      147
    9.325      181
    9.340      190
    9.355      192
    9.370      192
    9.385      186
    9.400      182
    9.415      192
    9.430      174
    9.445      189
    9.460      183
    9.475      188
    9.490      182
    9.505      203
    9.520      201
    9.535      222
    9.550      212
    9.565      218
    9.580      187
    9.595      199
    9.610      230
    9.625      218
    9.640      216
    9.655      210
    9.670      214
    9.685      270
    9.700      220
    9.715      218
    9.730      223
    9.745      181
    9.760      198
    9.775      177
    9.790      190
    9.805      186
    9.820      181
    9.835      189
    9.850      183
    9.865      173
    9.880      186
    9.895      186
    9.910      200
    9.925      183
    9.940      187
    9.955      180
    9.970      192
    9.985      191
   10.000      195
   10.015      202
   10.030      176
   10.045      192
   10.060      190
   10.075      195
   10.090      180
   10.105      187
   10.120      206
   10.135      202
   10.150      209
   10.165      235
   10.180      227
   10.195      226
   10.210      212
   10.225      227
   10.240      252
   10.255      260
   10.270      264
   10.285      300
   10.300      295
   10.315      325
   10.330      375
   10.345      405
   10.360      413
   10.375      403
   10.390      370
   10.405      275
   10.420      272
   10.435      193
   10.450      173
   10.465      215
   10.480      189
   10.495      197
   10.510      184
   10.525      213
   10.540      182
   10.555      212
   10.570      211
   10.585      185
   10.600      167
   10.615      193
   10.630      220
   10.645      221
   10.660      210
   10.675      219
   10.690      221
   10.705      253
   10.720      287
   10.735      265
   10.750      244
   10.765      232
   10.780      221
   10.795      222
   10.810      186
   10.825      181
   10.840      187
   10.855      194
   10.870      201
   10.885      207
   10.900      211
   10.915      207
   10.930      190
   10.945      205
   10.960      220
   10.975      231
   10.990      239
   11.005      252
   11.020      274
   11.035      312
   11.050      308
   11.065      301
   11.080      312
   11.095      336
   11.110      376
   11.125      356
   11.140      294
   11.155      222
   11.170      212
   11.185      189
   11.200      207
   11.215      208
   11.230      220
   11.245      226
   11.260      243
   11.275      246
   11.290      273
   11.305      249
   11.320      205
   11.335      197
   11.350      182
   11.365      167
   11.380      162
   11.395      170
   11.410      158
   11.425      159
   11.440      177
   11.455      173
   11.470      165
   11.485      185
   11.500      183
   11.515      171
   11.530      180
   11.545      183
   11.560      194
   11.575      193
   11.590      182
   11.605      195
   11.620      179
   11.635      215
   11.650      215
   11.665      212
   11.680      225
   11.695      258
   11.710      263
   11.725      271
   11.740      312
   11.755      316
   11.770      285
   11.785      260
   11.800      225
   11.815      223
   11.830      218
   11.845      222
   11.860      218
   11.875      216
   11.890      221
   11.905      237
   11.920      246
   11.935      253
   11.950      233
   11.965      191
   11.980      197
   11.995      196
   12.010      209
   12.025      211
   12.040      206
   12.055      189
   12.070      169
   12.085      170
   12.100      179
   12.115      183
   12.130      194
   12.145      185
   12.160      160
   12.175      180
   12.190      177
   12.205      195
   12.220      186
   12.235      188
   12.250      189
   12.265      206
   12.280      200
   12.295      228
   12.310      244
   12.325      284
   12.340      289
   12.355      341
   12.370      370
   12.385      441
   12.400      512
   12.415      588
   12.430      694
   12.445      854
   12.460      983
   12.475     1145
   12.490     1385
   12.505     1720
   12.520     1995
   12.535     1808
   12.550     1501
   12.565     1236
   12.580     1229
   12.595     1282
   12.610     1317
   12.625     1158
   12.640      992
   12.655      670
   12.670      414
   12.685      311
   12.700      288
   12.715      248
   12.730      251
   12.745      252
   12.760      255
   12.775      279
   12.790      278
   12.805      292
   12.820      283
   12.835      344
   12.850      374
   12.865      418
   12.880      539
   12.895      632
   12.910      664
   12.925      699
   12.940      544
   12.955      523
   12.970      584
   12.985      597
   13.000      690
   13.015      859
   13.030     1059
   13.045     1275
   13.060     1629
   13.075     2000
   13.090     2173
   13.105     2065
   13.120     1670
   13.135     1679
   13.150     1854
   13.165     2139
   13.180     2650
   13.195     3340
   13.210     3755
   13.225     3037
   13.240     1952
   13.255     1088
   13.270      642
   13.285      530
   13.300      432
   13.315      385
   13.330      407
   13.345      404
   13.360      462
   13.375      533
   13.390      584
   13.405      643
   13.420      793
   13.435      808
   13.450      852
   13.465      894
   13.480      875
   13.495      705
   13.510      535
   13.525      338
   13.540      282
   13.555      259
   13.570      255
   13.585      260
   13.600      252
   13.615      254
   13.630      288
   13.645      291
   13.660      335
   13.675      422
   13.690      428
   13.705      515
   13.720      480
   13.735      382
   13.750      284
   13.765      220
   13.780      196
   13.795      189
   13.810      171
   13.825      170
   13.840      188
   13.855      176
   13.870      170
   13.885      162
   13.900      153
   13.915      173
   13.930      174
   13.945      189
   13.960      184
   13.975      191
   13.990      198
   14.005      194
   14.020      190
   14.035      219
   14.050      226
   14.065      258
   14.080      276
   14.095      280
   14.110      322
   14.125      369
   14.140      432
   14.155      488
   14.170      519
   14.185      448
   14.200      405
   14.215      430
   14.230      474
   14.245      537
   14.260      522
   14.275      499
   14.290      543
   14.305      592
   14.320      669
   14.335      799
   14.350      993
   14.365     1016
   14.380      815
   14.395      578
   14.410      396
   14.425      293
   14.440      237
   14.455      206
   14.470      191
   14.485      174
   14.500      178
   14.515      150
   14.530      181
   14.545      188
   14.560      192
   14.575      168
   14.590      172
   14.605      181
   14.620      188
   14.635      176
   14.650      193
   14.665      190
   14.680      191
   14.695      188
   14.710      201
   14.725      234
   14.740      242
   14.755      271
   14.770      316
   14.785      313
   14.800      415
   14.815      488
   14.830      590
   14.845      653
   14.860      799
   14.875      875
   14.890      971
   14.905     1037
   14.920     1212
   14.935     1545
   14.950     1789
   14.965     1637
   14.980     1102
   14.995      720
   15.010      483
   15.025      379
   15.040      340
   15.055      325
   15.070      338
   15.085      364
   15.100      372
   15.115      442
   15.130      452
   15.145      550
   15.160      581
   15.175      587
   15.190      582
   15.205      475
   15.220      422
   15.235      431
   15.250      400
   15.265      348
   15.280      293
   15.295      288
   15.310      306
   15.325      299
   15.340      322
   15.355      356
   15.370      413
   15.385      398
   15.400      462
   15.415      537
   15.430      633
   15.445      724
   15.460      709
   15.475      548
   15.490      394
   15.505      350
   15.520      341
   15.535      341
   15.550      381
   15.565      388
   15.580      455
   15.595      524
   15.610      658
   15.625      718
   15.640      710
   15.655      578
   15.670      434
   15.685      327
   15.700      274
   15.715      259
   15.730      224
   15.745      225
   15.760      235
   15.775      223
   15.790      243
   15.805      243
   15.820      280
   15.835      282
   15.850      328
   15.865      335
   15.880      352
   15.895      464
   15.910      481
   15.925      569
   15.940      709
   15.955      918
   15.970      939
   15.985      904
   16.000      714
   16.015      484
   16.030      397
   16.045      341
   16.060      342
   16.075      328
   16.090      348
   16.105      417
   16.120      489
   16.135      540
   16.150      658
   16.165      683
   16.180      624
   16.195      607
   16.210      655
   16.225      714
   16.240      827
   16.255     1062
   16.270     1239
   16.285     1149
   16.300      931
   16.315      755
   16.330      673
   16.345      694
   16.360      755
   16.375      925
   16.390     1093
   16.405     1068
   16.420      886
   16.435      831
   16.450      742
   16.465      680
   16.480      700
   16.495      777
   16.510      961
   16.525     1163
   16.540     1281
   16.555     1292
   16.570     1058
   16.585      868
   16.600      860
   16.615      948
   16.630      921
   16.645      898
   16.660      808
   16.675      715
   16.690      540
   16.705      414
   16.720      361
   16.735      301
   16.750      325
   16.765      316
   16.780      333
   16.795      373
   16.810      423
   16.825      454
   16.840      520
   16.855      605
   16.870      614
   16.885      564
   16.900      465
   16.915      365
   16.930      308
   16.945      292
   16.960      285
   16.975      314
   16.990      359
   17.005      372
   17.020      423
   17.035      454
   17.050      490
   17.065      546
   17.080      508
   17.095      502
   17.110      404
   17.125      344
   17.140      332
   17.155      352
   17.170      368
   17.185      310
   17.200      286
   17.215      301
   17.230      308
   17.245      354
   17.260      403
   17.275      496
   17.290      583
   17.305      641
   17.320      619
   17.335      509
   17.350      339
   17.365      238
   17.380      207
   17.395      210
   17.410      206
   17.425      219
   17.440      211
   17.455      246
   17.470      270
   17.485      291
   17.500      328
   17.515      324
   17.530      326
   17.545      343
   17.560      358
   17.575      400
   17.590      390
   17.605      367
   17.620      311
   17.635      241
   17.650      232
   17.665      213
   17.680      215
   17.695      194
   17.710      191
   17.725      181
   17.740      167
   17.755      180
   17.770      151
   17.785      165
   17.800      174
   17.815      170
   17.830      165
   17.845      174
   17.860      163
   17.875      151
   17.890      155
   17.905      169
   17.920      165
   17.935      165
   17.950      177
   17.965      191
   17.980      212
   17.995      185
   18.010      213
   18.025      254
   18.040      289
   18.055      325
   18.070      334
   18.085      326
   18.100      394
   18.115      408
   18.130      421
   18.145      385
   18.160      331
   18.175      260
   18.190      206
   18.205      204
   18.220      182
   18.235      185
   18.250      188
   18.265      211
   18.280      244
   18.295      237
   18.310      258
   18.325      321
   18.340      358
   18.355      419
   18.370      469
   18.385      549
   18.400      566
   18.415      546
   18.430      514
   18.445      513
   18.460      550
   18.475      647
   18.490      745
   18.505      761
   18.520      737
   18.535      628
   18.550      549
   18.565      446
   18.580      370
   18.595      357
   18.610      345
   18.625      333
   18.640      357
   18.655      366
   18.670      395
   18.685      462
   18.700      516
   18.715      533
   18.730      488
   18.745      430
   18.760      389
   18.775      356
   18.790      356
   18.805      299
   18.820      301
   18.835      239
   18.850      203
   18.865      192
   18.880      192
   18.895      189
   18.910      195
   18.925      191
   18.940      178
   18.955      169
   18.970      185
   18.985      168
   19.000      161
   19.015      152
   19.030      188
   19.045      167
   19.060      154
   19.075      159
   19.090      155
   19.105      151
   19.120      177
   19.135      169
   19.150      157
   19.165      158
   19.180      149
   19.195      155
   19.210      139
   19.225      147
   19.240      185
   19.255      179
   19.270      184
   19.285      188
   19.300      198
   19.315      195
   19.330      233
   19.345      239
   19.360      304
   19.375      330
   19.390      370
   19.405      404
   19.420      433
   19.435      498
   19.450      451
   19.465      397
   19.480      338
   19.495      277
   19.510      249
   19.525      252
   19.540      277
   19.555      293
   19.570      331
   19.585      368
   19.600      422
   19.615      481
   19.630      579
   19.645      719
   19.660      867
   19.675     1036
   19.690     1111
   19.705     1111
   19.720      947
   19.735      784
   19.750      618
   19.765      615
   19.780      676
   19.795      707
   19.810      785
   19.825      809
   19.840      703
   19.855      578
   19.870      509
   19.885      447
   19.900      372
   19.915      315
   19.930      280
   19.945      257
   19.960      282
   19.975      274
   19.990      295
   20.005      367
   20.020      387
   20.035      340
   20.050      300
   20.065      244
   20.080      207
   20.095      181
   20.110      170
   20.125      155
   20.140      166
   20.155      141
   20.170      164
   20.185      177
   20.200      150
   20.215      150
   20.230      162
   20.245      175
   20.260      170
   20.275      161
   20.290      161
   20.305      181
   20.320      166
   20.335      188
   20.350      216
   20.365      221
   20.380      208
   20.395      208
   20.410      185
   20.425      194
   20.440      196
   20.455      222
   20.470      233
   20.485      238
   20.500      268
   20.515      291
   20.530      349
   20.545      378
   20.560      464
   20.575      448
   20.590      425
   20.605      407
   20.620      385
   20.635      436
   20.650      452
   20.665      436
   20.680      406
   20.695      329
   20.710      282
   20.725      217
   20.740      243
   20.755      228
   20.770      192
   20.785      235
   20.800      245
   20.815      246
   20.830      234
   20.845      226
   20.860      251
   20.875      226
   20.890      230
   20.905      223
   20.920      210
   20.935      216
   20.950      198
   20.965      211
   20.980      181
   20.995      200
   21.010      216
   21.025      260
   21.040      272
   21.055      224
   21.070      203
   21.085      199
   21.100      157
   21.115      164
   21.130      169
   21.145      159
   21.160      163
   21.175      186
   21.190      176
   21.205      173
   21.220      196
   21.235      209
   21.250      225
   21.265      243
   21.280      245
   21.295      292
   21.310      338
   21.325      421
   21.340      514
   21.355      638
   21.370      700
   21.385      694
   21.400      612
   21.415      552
   21.430      497
   21.445      509
   21.460      539
   21.475      547
   21.490      653
   21.505      727
   21.520      945
   21.535     1173
   21.550     1476
   21.565     1790
   21.580     1694
   21.595     1363
   21.610     1021
   21.625      686
   21.640      565
   21.655      501
   21.670      516
   21.685      501
   21.700      462
   21.715      394
   21.730      296
   21.745      268
   21.760      216
   21.775      209
   21.790      206
   21.805      159
   21.820      181
   21.835      188
   21.850      200
   21.865      189
   21.880      179
   21.895      178
   21.910      185
   21.925      192
   21.940      212
   21.955      191
   21.970      218
   21.985      217
   22.000      194
   22.015      190
   22.030      202
   22.045      233
   22.060      245
   22.075      262
   22.090      250
   22.105      261
   22.120      271
   22.135      284
   22.150      361
   22.165      391
   22.180      380
   22.195      335
   22.210      291
   22.225      251
   22.240      251
   22.255      231
   22.270      222
   22.285      278
   22.300      289
   22.315      337
   22.330      403
   22.345      447
   22.360      505
   22.375      554
   22.390      533
   22.405      500
   22.420      420
   22.435      364
   22.450      320
   22.465      325
   22.480      323
   22.495      364
   22.510      418
   22.525      433
   22.540      451
   22.555      557
   22.570      616
   22.585      677
   22.600      641
   22.615      623
   22.630      563
   22.645      544
   22.660      503
   22.675      440
   22.690      379
   22.705      336
   22.720      295
   22.735      279
   22.750      292
   22.765      303
   22.780      316
   22.795      348
   22.810      381
   22.825      385
   22.840      387
   22.855      346
   22.870      321
   22.885      304
   22.900      291
   22.915      307
   22.930      339
   22.945      371
   22.960      364
   22.975      329
   22.990      286
   23.005      252
   23.020      236
   23.035      209
   23.050      212
   23.065      202
   23.080      210
   23.095      212
   23.110      224
   23.125      256
   23.140      267
   23.155      294
   23.170      292
   23.185      257
   23.200      212
   23.215      187
   23.230      168
   23.245      164
   23.260      154
   23.275      151
   23.290      159
   23.305      154
   23.320      165
   23.335      148
   23.350      138
   23.365      156
   23.380      150
   23.395      151
   23.410      150
   23.425      160
   23.440      147
   23.455      161
   23.470      147
   23.485      160
   23.500      157
   23.515      155
   23.530      159
   23.545      165
   23.560      169
   23.575      199
   23.590      194
   23.605      193
   23.620      189
   23.635      173
   23.650      178
   23.665      177
   23.680      214
   23.695      211
   23.710      256
   23.725      303
   23.740      337
   23.755      306
   23.770      250
   23.785      235
   23.800      197
   23.815      172
   23.830      178
   23.845      181
   23.860      189
   23.875      192
   23.890      218
   23.905      232
   23.920      254
   23.935      282
   23.950      312
   23.965      374
   23.980      402
   23.995      395
   24.010      314
   24.025      306
   24.040      240
   24.055      204
   24.070      216
   24.085      216
   24.100      228
   24.115      250
   24.130      238
   24.145      248
   24.160      262
   24.175      247
   24.190      255
   24.205      258
   24.220      250
   24.235      224
   24.250      203
   24.265      173
   24.280      189
   24.295      177
   24.310      178
   24.325      193
   24.340      209
   24.355      213
   24.370      212
   24.385      211
   24.400      229
   24.415      196
   24.430      195
   24.445      194
   24.460      210
   24.475      201
   24.490      195
   24.505      195
   24.520      201
   24.535      159
   24.550      145
   24.565      159
   24.580      143
   24.595      182
   24.610      189
   24.625      217
   24.640      236
   24.655      268
   24.670      286
   24.685      337
   24.700      349
   24.715      358
   24.730      300
   24.745      282
   24.760      265
   24.775      251
   24.790      254
   24.805      268
   24.820      282
   24.835      285
   24.850      280
   24.865      286
   24.880      338
   24.895      370
   24.910      349
   24.925      307
   24.940      242
   24.955      223
   24.970      206
   24.985      209
   25.000      173
   25.015      188
   25.030      164
   25.045      159
   25.060      186
   25.075      221
   25.090      217
   25.105      230
   25.120      274
   25.135      287
   25.150      283
   25.165      296
   25.180      296
   25.195      262
   25.210      261
   25.225      239
   25.240      244
   25.255      227
   25.270      277
   25.285      276
   25.300      306
   25.315      352
   25.330      352
   25.345      439
   25.360      492
   25.375      534
   25.390      540
   25.405      556
   25.420      479
   25.435      431
   25.450      361
   25.465      297
   25.480      254
   25.495      237
   25.510      265
   25.525      266
   25.540      264
   25.555      282
   25.570      287
   25.585      315
   25.600      356
   25.615      360
   25.630      320
   25.645      255
   25.660      232
   25.675      198
   25.690      203
   25.705      217
   25.720      206
   25.735      216
   25.750      203
   25.765      241
   25.780      243
   25.795      232
   25.810      258
   25.825      248
   25.840      268
   25.855      289
   25.870      278
   25.885      260
   25.900      262
   25.915      244
   25.930      237
   25.945      214
   25.960      190
   25.975      196
   25.990      202
   26.005      189
   26.020      205
   26.035      198
   26.050      196
   26.065      193
   26.080      213
   26.095      209
   26.110      175
   26.125      167
   26.140      160
   26.155      156
   26.170      152
   26.185      151
   26.200      149
   26.215      160
   26.230      169
   26.245      155
   26.260      161
   26.275      178
   26.290      203
   26.305      218
   26.320      216
   26.335      272
   26.350      303
   26.365      297
   26.380      260
   26.395      221
   26.410      206
   26.425      195
   26.440      170
   26.455      172
   26.470      182
   26.485      179
   26.500      189
   26.515      216
   26.530      256
   26.545      284
   26.560      335
   26.575      356
   26.590      413
   26.605      462
   26.620      480
   26.635      462
   26.650      432
   26.665      420
   26.680      481
   26.695      428
   26.710      371
   26.725      348
   26.740      284
   26.755      258
   26.770      222
   26.785      218
   26.800      207
   26.815      214
   26.830      189
   26.845      217
   26.860      211
   26.875      195
   26.890      229
   26.905      220
   26.920      223
   26.935      233
   26.950      239
   26.965      216
   26.980      204
   26.995      189
   27.010      194
   27.025      178
   27.040      196
   27.055      214
   27.070      198
   27.085      207
   27.100      223
   27.115      234
   27.130      259
   27.145      270
   27.160      299
   27.175      317
   27.190      351
   27.205      394
   27.220      408
   27.235      409
   27.250      404
   27.265      398
   27.280      428
   27.295      420
   27.310      403
   27.325      444
   27.340      422
   27.355      402
   27.370      410
   27.385      361
   27.400      342
   27.415      326
   27.430      261
   27.445      242
   27.460      249
   27.475      235
   27.490      212
   27.505      244
   27.520      261
   27.535      277
   27.550      285
   27.565      292
   27.580      286
   27.595      275
   27.610      265
   27.625      265
   27.640      240
   27.655      236
   27.670      215
   27.685      207
   27.700      182
   27.715      194
   27.730      187
   27.745      209
   27.760      192
   27.775      224
   27.790      210
   27.805      258
   27.820      261
   27.835      283
   27.850      288
   27.865      258
   27.880      256
   27.895      233
   27.910      238
   27.925      250
   27.940      244
   27.955      252
   27.970      252
   27.985      261
   28.000      260
   28.015      289
   28.030      288
   28.045      259
   28.060      243
   28.075      221
   28.090      249
   28.105      202
   28.120      193
   28.135      189
   28.150      201
   28.165      176
   28.180      171
   28.195      160
   28.210      158
   28.225      170
   28.240      171
   28.255      179
   28.270      164
   28.285      181
   28.300      169
   28.315      197
   28.330      197
   28.345      205
   28.360      211
   28.375      229
   28.390      208
   28.405      220
   28.420      229
   28.435      235
   28.450      226
   28.465      219
   28.480      203
   28.495      217
   28.510      246
   28.525      257
   28.540      277
   28.555      284
   28.570      303
   28.585      294
   28.600      279
   28.615      279
   28.630      269
   28.645      279
   28.660      266
   28.675      239
   28.690      248
   28.705      240
   28.720      241
   28.735      244
   28.750      248
   28.765      242
   28.780      250
   28.795      209
   28.810      223
   28.825      258
   28.840      217
   28.855      214
   28.870      205
   28.885      204
   28.900      227
   28.915      225
   28.930      203
   28.945      202
   28.960      209
   28.975      198
   28.990      179
   29.005      179
   29.020      193
   29.035      180
   29.050      188
   29.065      195
   29.080      166
   29.095      178
   29.110      195
   29.125      191
   29.140      206
   29.155      212
   29.170      214
   29.185      218
   29.200      207
   29.215      233
   29.230      250
   29.245      249
   29.260      252
   29.275      273
   29.290      305
   29.305      351
   29.320      382
   29.335      381
   29.350      360
   29.365      325
   29.380      294
   29.395      275
   29.410      283
   29.425      261
   29.440      254
   29.455      230
   29.470      216
   29.485      218
   29.500      252
   29.515      253
   29.530      239
   29.545      243
   29.560      219
   29.575      204
   29.590      202
   29.605      180
   29.620      182
   29.635      183
   29.650      176
   29.665      200
   29.680      165
   29.695      167
   29.710      185
   29.725      194
   29.740      191
   29.755      161
   29.770      201
   29.785      210
   29.800      207
   29.815      194
   29.830      181
   29.845      175
   29.860      202
   29.875      189
   29.890      161
   29.905      159
   29.920      182
   29.935      162
   29.950      201
   29.965      196
   29.980      191
   29.995      185
   30.010      171
   30.025      185
   30.040      182
   30.055      192
   30.070      186
   30.085      194
   30.100      200
   30.115      188
   30.130      190
   30.145      207
   30.160      196
   30.175      216
   30.190      220
   30.205      239
   30.220      207
   30.235      230
   30.250      253
   30.265      255
   30.280      288
   30.295      270
   30.310      273
   30.325      231
   30.340      208
   30.355      203
   30.370      171
   30.385      171
   30.400      174
   30.415      156
   30.430      142
   30.445      161
   30.460      167
   30.475      166
   30.490      172
   30.505      183
   30.520      183
   30.535      201
   30.550      210
   30.565      241
   30.580      243
   30.595      251
   30.610      262
   30.625      255
   30.640      303
   30.655      304
   30.670      262
   30.685      252
   30.700      240
   30.715      242
   30.730      231
   30.745      223
   30.760      223
   30.775      233
   30.790      221
   30.805      235
   30.820      201
   30.835      219
   30.850      215
   30.865      189
   30.880      186
   30.895      195
   30.910      183
   30.925      180
   30.940      202
   30.955      215
   30.970      205
   30.985      218
   31.000      227
   31.015      242
   31.030      237
   31.045      238
   31.060      243
   31.075      231
   31.090      218
   31.105      242
   31.120      206
   31.135      185
   31.150      217
   31.165      220
   31.180      222
   31.195      251
   31.210      267
   31.225      270
   31.240      241
   31.255      244
   31.270      234
   31.285      219
   31.300      225
   31.315      242
   31.330      207
   31.345      238
   31.360      247
   31.375      255
   31.390      247
   31.405      252
   31.420      245
   31.435      232
   31.450      269
   31.465      278
   31.480      301
   31.495      318
   31.510      353
   31.525      389
   31.540      342
   31.555      315
   31.570      286
   31.585      271
   31.600      246
   31.615      264
   31.630      278
   31.645      253
   31.660      235
   31.675      241
   31.690      218
   31.705      221
   31.720      231
   31.735      254
   31.750      217
   31.765      222
   31.780      241
   31.795      226
   31.810      216
   31.825      209
   31.840      180
   31.855      182
   31.870      168
   31.885      197
   31.900      192
   31.915      185
   31.930      159
   31.945      195
   31.960      188
   31.975      180
   31.990      166
   32.005      183
   32.020      171
   32.035      189
   32.050      172
   32.065      172
   32.080      173
   32.095      189
   32.110      156
   32.125      145
   32.140      163
   32.155      142
   32.170      155
   32.185      163
   32.200      162
   32.215      172
   32.230      157
   32.245      162
   32.260      166
   32.275      164
   32.290      173
   32.305      176
   32.320      152
   32.335      160
   32.350      167
   32.365      178
   32.380      165
   32.395      178
   32.410      163
   32.425      171
   32.440      188
   32.455      174
   32.470      184
   32.485      187
   32.500      205
   32.515      227
   32.530      243
   32.545      297
   32.560      302
   32.575      314
   32.590      351
   32.605      363
   32.620      336
   32.635      353
   32.650      288
   32.665      250
   32.680      218
   32.695      258
   32.710      198
   32.725      190
   32.740      190
   32.755      201
   32.770      210
   32.785      240
   32.800      218
   32.815      216
   32.830      203
   32.845      189
   32.860      189
   32.875      206
   32.890      183
   32.905      195
   32.920      207
   32.935      193
   32.950      177
   32.965      180
   32.980      206
   32.995      238
   33.010      218
   33.025      245
   33.040      236
   33.055      248
   33.070      262
   33.085      280
   33.100      321
   33.115      300
   33.130      305
   33.145      328
   33.160      290
   33.175      264
   33.190      258
   33.205      288
   33.220      242
   33.235      241
   33.250      250
   33.265      224
   33.280      194
   33.295      206
   33.310      207
   33.325      209
   33.340      212
   33.355      254
   33.370      247
   33.385      281
   33.400      276
   33.415      325
   33.430      319
   33.445      336
   33.460      302
   33.475      263
   33.490      259
   33.505      262
   33.520      244
   33.535      224
   33.550      232
   33.565      237
   33.580      251
   33.595      247
   33.610      243
   33.625      241
   33.640      226
   33.655      251
   33.670      224
   33.685      230
   33.700      211
   33.715      196
   33.730      201
   33.745      174
   33.760      192
   33.775      203
   33.790      195
   33.805      193
   33.820      186
   33.835      188
   33.850      182
   33.865      169
   33.880      167
   33.895      171
   33.910      166
   33.925      152
   33.940      146
   33.955      181
   33.970      189
   33.985      184
   34.000      183
   34.015      180
   34.030      177
   34.045      191
   34.060      234
   34.075      229
   34.090      219
   34.105      247
   34.120      240
   34.135      237
   34.150      262
   34.165      227
   34.180      204
   34.195      193
   34.210      206
   34.225      200
   34.240      161
   34.255      179
   34.270      174
   34.285      169
   34.300      194
   34.315      195
   34.330      227
   34.345      225
   34.360      195
   34.375      226
   34.390      208
   34.405      216
   34.420      234
   34.435      216
   34.450      198
   34.465      191
   34.480      214
   34.495      216
   34.510      202
   34.525      176
   34.540      208
   34.555      204
   34.570      196
   34.585      205
   34.600      190
   34.615      186
   34.630      196
   34.645      203
   34.660      216
   34.675      215
   34.690      213
   34.705      214
   34.720      221
   34.735      219
   34.750      187
   34.765      226
   34.780      243
   34.795      226
   34.810      233
   34.825      257
   34.840      257
   34.855      282
   34.870      284
   34.885      288
   34.900      270
   34.915      271
   34.930      298
   34.945      296
   34.960      319
   34.975      340
   34.990      329
   35.005      366
   35.020      363
   35.035      355
   35.050      352
   35.065      353
   35.080      335
   35.095      321
   35.110      318
   35.125      308
   35.140      336
   35.155      367
   35.170      375
   35.185      357
   35.200      344
   35.215      365
   35.230      372
   35.245      326
   35.260      286
   35.275      244
   35.290      246
   35.305      239
   35.320      237
   35.335      206
   35.350      206
   35.365      203
   35.380      178
   35.395      169
   35.410      184
   35.425      164
   35.440      168
   35.455      171
   35.470      161
   35.485      180
   35.500      179
   35.515      170
   35.530      166
   35.545      167
   35.560      168
   35.575      175
   35.590      166
   35.605      181
   35.620      187
   35.635      163
   35.650      164
   35.665      178
   35.680      161
   35.695      175
   35.710      205
   35.725      179
   35.740      155
   35.755      181
   35.770      194
   35.785      210
   35.800      187
   35.815      168
   35.830      178
   35.845      203
   35.860      240
   35.875      230
   35.890      229
   35.905      231
   35.920      195
   35.935      192
   35.950      177
   35.965      162
   35.980      162
   35.995      180
   36.010      163
   36.025      173
   36.040      180
   36.055      172
   36.070      184
   36.085      166
   36.100      159
   36.115      177
   36.130      184
   36.145      186
   36.160      172
   36.175      177
   36.190      178
   36.205      166
   36.220      160
   36.235      186
   36.250      152
   36.265      150
   36.280      180
   36.295      173
   36.310      212
   36.325      198
   36.340      198
   36.355      196
   36.370      216
   36.385      198
   36.400      208
   36.415      196
   36.430      171
   36.445      170
   36.460      170
   36.475      173
   36.490      167
   36.505      170
   36.520      171
   36.535      176
   36.550      187
   36.565      190
   36.580      207
   36.595      188
   36.610      169
   36.625      184
   36.640      186
   36.655      195
   36.670      198
   36.685      199
   36.700      211
   36.715      210
   36.730      177
   36.745      183
   36.760      196
   36.775      188
   36.790      185
   36.805      193
   36.820      176
   36.835      204
   36.850      224
   36.865      209
   36.880      217
   36.895      207
   36.910      204
   36.925      179
   36.940      159
   36.955      166
   36.970      149
   36.985      155
   37.000      163
   37.015      142
   37.030      136
   37.045      136
   37.060      143
   37.075      145
   37.090      150
   37.105      139
   37.120      143
   37.135      140
   37.150      152
   37.165      152
   37.180      153
   37.195      171
   37.210      164
   37.225      153
   37.240      154
   37.255      146
   37.270      140
   37.285      148
   37.300      163
   37.315      139
   37.330      144
   37.345      148
   37.360      145
   37.375      181
   37.390      188
   37.405      175
   37.420      180
   37.435      155
   37.450      176
   37.465      180
   37.480      190
   37.495      188
   37.510      170
   37.525      166
   37.540      180
   37.555      212
   37.570      173
   37.585      182
   37.600      195
   37.615      200
   37.630      153
   37.645      157
   37.660      177
   37.675      163
   37.690      138
   37.705      133
   37.720      152
   37.735      172
   37.750      154
   37.765      161
   37.780      168
   37.795      172
   37.810      184
   37.825      165
   37.840      149
   37.855      155
   37.870      170
   37.885      180
   37.900      176
   37.915      195
   37.930      235
   37.945      244
   37.960      238
   37.975      224
   37.990      203
   38.005      189
   38.020      192
   38.035      175
   38.050      183
   38.065      188
   38.080      179
   38.095      166
   38.110      160
   38.125      164
   38.140      178
   38.155      184
   38.170      180
   38.185      190
   38.200      179
   38.215      178
   38.230      171
   38.245      184
   38.260      186
   38.275      177
   38.290      165
   38.305      168
   38.320      149
   38.335      156
   38.350      155
   38.365      172
   38.380      177
   38.395      200
   38.410      172
   38.425      182
   38.440      206
   38.455      189
   38.470      167
   38.485      168
   38.500      176
   38.515      160
   38.530      175
   38.545      175
   38.560      184
   38.575      177
   38.590      169
   38.605      161
   38.620      142
   38.635      155
   38.650      173
   38.665      163
   38.680      188
   38.695      156
   38.710      168
   38.725      159
   38.740      166
   38.755      147
   38.770      152
   38.785      148
   38.800      159
   38.815      152
   38.830      161
   38.845      154
   38.860      143
   38.875      136
   38.890      144
   38.905      144
   38.920      133
   38.935      131
   38.950      149
   38.965      139
   38.980      146
   38.995      135
   39.010      132
   39.025      143
   39.040      136
   39.055      137
   39.070      144
   39.085      151
   39.100      150
   39.115      136
   39.130      150
   39.145      136
   39.160      130
   39.175      149
   39.190      151
   39.205      151
   39.220      161
   39.235      141
   39.250      167
   39.265      149
   39.280      146
   39.295      159
   39.310      173
   39.325      155
   39.340      175
   39.355      187
   39.370      183
   39.385      195
   39.400      169
   39.415      170
   39.430      169
   39.445      158
   39.460      171
   39.475      159
   39.490      158
   39.505      154
   39.520      163
   39.535      159
   39.550      130
   39.565      129
   39.580      118
   39.595      139
   39.610      151
   39.625      142
   39.640      128
   39.655      149
   39.670      148
   39.685      146
   39.700      149
   39.715      147
   39.730      144
   39.745      146
   39.760      140
   39.775      135
   39.790      146
   39.805      146
   39.820      162
   39.835      156
   39.850      158
   39.865      136
   39.880      156
   39.895      173
   39.910      151
   39.925      163
   39.940      172
   39.955      177
   39.970      186
   39.985      174
   40.000      204
   40.015      203
   40.030      219
   40.045      195
   40.060      205
   40.075      202
   40.090      199
   40.105      204
   40.120      189
   40.135      181
   40.150      154
   40.165      160
   40.180      151
   40.195      163
   40.210      173
   40.225      156
   40.240      162
   40.255      170
   40.270      189
   40.285      185
   40.300      197
   40.315      195
   40.330      184
   40.345      209
   40.360      203
   40.375      176
   40.390      200
   40.405      201
   40.420      194
   40.435      185
   40.450      161
   40.465      142
   40.480      146
   40.495      158
   40.510      158
   40.525      162
   40.540      156
   40.555      130
   40.570      136
   40.585      151
   40.600      147
   40.615      141
   40.630      149
   40.645      139
   40.660      143
   40.675      124
   40.690      147
   40.705      149
   40.720      124
   40.735      129
   40.750      147
   40.765      142
   40.780      140
   40.795      124
   40.810      136
   40.825      136
   40.840      121
   40.855      122
   40.870      122
   40.885      122
   40.900      141
   40.915      141
   40.930      137
   40.945      127
   40.960      144
   40.975      155
   40.990      149
   41.005      156
   41.020      164
   41.035      145
   41.050      140
   41.065      143
   41.080      143
   41.095      156
   41.110      153
   41.125      145
   41.140      133
   41.155      130
   41.170      142
   41.185      143
   41.200      153
   41.215      160
   41.230      152
   41.245      139
   41.260      163
   41.275      147
   41.290      152
   41.305      168
   41.320      163
   41.335      161
   41.350      173
   41.365      158
   41.380      160
   41.395      169
   41.410      167
   41.425      137
   41.440      143
   41.455      134
   41.470      145
   41.485      153
   41.500      152
   41.515      161
   41.530      169
   41.545      151
   41.560      161
   41.575      170
   41.590      165
   41.605      174
   41.620      183
   41.635      187
   41.650      167
   41.665      151
   41.680      165
   41.695      160
   41.710      154
   41.725      153
   41.740      143
   41.755      125
   41.770      139
   41.785      145
   41.800      140
   41.815      146
   41.830      156
   41.845      157
   41.860      164
   41.875      169
   41.890      147
   41.905      142
   41.920      164
   41.935      174
   41.950      162
   41.965      154
   41.980      147
   41.995      139
   42.010      154
   42.025      148
   42.040      140
   42.055      154
   42.070      147
   42.085      162
   42.100      140
   42.115      141
   42.130      138
   42.145      156
   42.160      142
   42.175      140
   42.190      147
   42.205      129
   42.220      127
   42.235      153
   42.250      130
   42.265      130
   42.280      141
   42.295      135
   42.310      143
   42.325      160
   42.340      148
   42.355      165
   42.370      147
   42.385      141
   42.400      143
   42.415      134
   42.430      150
   42.445      152
   42.460      134
   42.475      140
   42.490      151
   42.505      149
   42.520      161
   42.535      154
   42.550      148
   42.565      172
   42.580      163
   42.595      159
   42.610      140
   42.625      150
   42.640      157
   42.655      149
   42.670      154
   42.685      143
   42.700      155
   42.715      150
   42.730      143
   42.745      149
   42.760      136
   42.775      151
   42.790      148
   42.805      131
   42.820      136
   42.835      124
   42.850      118
   42.865      131
   42.880      122
   42.895      135
   42.910      127
   42.925      139
   42.940      138
   42.955      137
   42.970      136
   42.985      138
   43.000      120
   43.015      137
   43.030      123
   43.045      132
   43.060      121
   43.075      144
   43.090      123
   43.105      127
   43.120      141
   43.135      144
   43.150      151
   43.165      140
   43.180      139
   43.195      146
   43.210      137
   43.225      145
   43.240      143
   43.255      132
   43.270      139
   43.285      144
   43.300      141
   43.315      129
   43.330      118
   43.345      138
   43.360      152
   43.375      157
   43.390      125
   43.405      122
   43.420      135
   43.435      162
   43.450      150
   43.465      146
   43.480      140
   43.495      137
   43.510      136
   43.525      130
   43.540      134
   43.555      148
   43.570      150
   43.585      139
   43.600      152
   43.615      142
   43.630      141
   43.645      157
   43.660      159
   43.675      154
   43.690      164
   43.705      157
   43.720      161
   43.735      155
   43.750      167
   43.765      163
   43.780      156
   43.795      139
   43.810      134
   43.825      149
   43.840      144
   43.855      138
   43.870      148
   43.885      154
   43.900      147
   43.915      154
   43.930      153
   43.945      150
   43.960      157
   43.975      168
   43.990      148
   44.005      147
   44.020      154
   44.035      137
   44.050      145
   44.065      139
   44.080      133
   44.095      139
   44.110      156
   44.125      160
   44.140      146
   44.155      158
   44.170      160
   44.185      159
   44.200      186
   44.215      172
   44.230      169
   44.245      170
   44.260      157
   44.275      179
   44.290      152
   44.305      149
   44.320      143
   44.335      154
   44.350      142
   44.365      140
   44.380      152
   44.395      155
   44.410      177
   44.425      159
   44.440      168
   44.455      165
   44.470      173
   44.485      165
   44.500      159
   44.515      192
   44.530      191
   44.545      191
   44.560      207
   44.575      180
   44.590      186
   44.605      207
   44.620      179
   44.635      162
   44.650      162
   44.665      170
   44.680      163
   44.695      174
   44.710      169
   44.725      168
   44.740      163
   44.755      155
   44.770      179
   44.785      174
   44.800      148
   44.815      142
   44.830      144
   44.845      148
   44.860      138
   44.875      137
   44.890      131
   44.905      147
   44.920      144
   44.935      127
   44.950      149
   44.965      157
   44.980      153
   44.995      158
   45.010      180
   45.025      167
   45.040      152
   45.055      162
   45.070      153
   45.085      153
   45.100      147
   45.115      139
   45.130      142
   45.145      145
   45.160      151
   45.175      145
   45.190      136
   45.205      125
   45.220      140
   45.235      123
   45.250      110
   45.265      123
   45.280      137
   45.295      128
   45.310      118
   45.325      135
   45.340      133
   45.355      129
   45.370      128
   45.385      130
   45.400      141
   45.415      160
   45.430      164
   45.445      158
   45.460      148
   45.475      131
   45.490      140
   45.505      127
   45.520      144
   45.535      122
   45.550      136
   45.565      149
   45.580      146
   45.595      135
   45.610      133
   45.625      150
   45.640      159
   45.655      156
   45.670      163
   45.685      153
   45.700      154
   45.715      149
   45.730      151
   45.745      139
   45.760      135
   45.775      131
   45.790      140
   45.805      137
   45.820      143
   45.835      137
   45.850      138
   45.865      158
   45.880      152
   45.895      154
   45.910      141
   45.925      151
   45.940      137
   45.955      145
   45.970      143
   45.985      136
