    4.000      216
    4.015      220
    4.030      185
    4.045      191
    4.060      193
    4.075      208
    4.090      194
    4.105      212
    4.120      195
    4.135      193
    4.150      190
    4.165      210
    4.180      200
    4.195      194
    4.210      189
    4.225      206
    4.240      175
    4.255      218
    4.270      225
    4.285      217
    4.300      216
    4.315      206
    4.330      190
    4.345      189
    4.360      206
    4.375      204
    4.390      206
    4.405      191
    4.420      202
    4.435      190
    4.450      199
    4.465      201
    4.480      203
    4.495      173
    4.510      185
    4.525      185
    4.540      202
    4.555      188
    4.570      206
    4.585      214
    4.600      194
    4.615      185
    4.630      185
    4.645      211
    4.660      204
    4.675      201
    4.690      193
    4.705      205
    4.720      185
    4.735      200
    4.750      200
    4.765      183
    4.780      200
    4.795      186
    4.810      180
    4.825      178
    4.840      197
    4.855      202
    4.870      191
    4.885      192
    4.900      201
    4.915      196
    4.930      205
    4.945      185
    4.960      183
    4.975      175
    4.990      190
    5.005      194
    5.020      186
    5.035      176
    5.050      168
    5.065      170
    5.080      180
    5.095      193
    5.110      185
    5.125      176
    5.140      172
    5.155      157
    5.170      189
    5.185      195
    5.200      184
    5.215      199
    5.230      195
    5.245      173
    5.260      192
    5.275      197
    5.290      182
    5.305      167
    5.320      178
    5.335      193
    5.350      181
    5.365      188
    5.380      198
    5.395      192
    5.410      171
    5.425      171
    5.440      191
    5.455      173
    5.470      176
    5.485      199
    5.500      184
    5.515      159
    5.530      160
    5.545      160
    5.560      164
    5.575      170
    5.590      189
    5.605      173
    5.620      191
    5.635      181
    5.650      166
    5.665      165
    5.680      176
    5.695      191
    5.710      197
    5.725      188
    5.740      165
    5.755      186
    5.770      175
    5.785      181
    5.800      202
    5.815      194
    5.830      187
    5.845      188
    5.860      188
    5.875      170
    5.890      170
    5.905      182
    5.920      169
    5.935      176
    5.950      201
    5.965      185
    5.980      206
    5.995      177
    6.010      167
    6.025      155
    6.040      175
    6.055      191
    6.070      186
    6.085      169
    6.100      186
    6.115      169
    6.130      191
    6.145      184
    6.160      182
    6.175      187
    6.190      186
    6.205      206
    6.220      224
    6.235      198
    6.250      193
    6.265      205
    6.280      221
    6.295      228
    6.310      224
    6.325      239
    6.340      243
    6.355      239
    6.370      241
    6.385      282
    6.400      268
    6.415      271
    6.430      278
    6.445      287
    6.460      306
    6.475      328
    6.490      363
    6.505      411
    6.520      438
    6.535      404
    6.550      428
    6.565      396
    6.580      374
    6.595      279
    6.610      211
    6.625      188
    6.640      176
    6.655      176
    6.670      163
    6.685      169
    6.700      159
    6.715      176
    6.730      173
    6.745      177
    6.760      186
    6.775      182
    6.790      178
    6.805      183
    6.820      182
    6.835      164
    6.850      171
    6.865      181
    6.880      179
    6.895      181
    6.910      208
    6.925      199
    6.940      181
    6.955      204
    6.970      213
    6.985      210
    7.000      217
    7.015      202
    7.030      215
    7.045      253
    7.060      257
    7.075      300
    7.090      284
    7.105      227
    7.120      189
    7.135      158
    7.150      165
    7.165      167
    7.180      177
    7.195      205
    7.210      185
    7.225      182
    7.240      187
    7.255      170
    7.270      166
    7.285      186
    7.300      202
    7.315      168
    7.330      182
    7.345      178
    7.360      171
    7.375      172
    7.390      159
    7.405      193
    7.420      180
    7.435      191
    7.450      186
    7.465      180
    7.480      175
    7.495      210
    7.510      217
    7.525      232
    7.540      248
    7.555      254
    7.570      212
    7.585      202
    7.600      204
    7.615      192
    7.630      162
    7.645      154
    7.660      179
    7.675      176
    7.690      176
    7.705      167
    7.720      167
    7.735      167
    7.750      195
    7.765      160
    7.780      164
    7.795      181
    7.810      192
    7.825      186
    7.840      191
    7.855      184
    7.870      168
    7.885      155
    7.900      172
    7.915      174
    7.930      180
    7.945      175
    7.960      173
    7.975      182
    7.990      184
    8.005      167
    8.020      194
    8.035      192
    8.050      170
    8.065      165
    8.080      173
    8.095      198
    8.110      184
    8.125      163
    8.140      161
    8.155      182
    8.170      193
    8.185      183
    8.200      172
    8.215      195
    8.230      179
    8.245      170
    8.260      185
    8.275      200
    8.290      204
    8.305      188
    8.320      197
    8.335      189
    8.350      179
    8.365      190
    8.380      187
    8.395      203
    8.410      198
    8.425      186
    8.440      177
    8.455      182
    8.470      196
    8.485      197
    8.500      184
    8.515      184
    8.530      193
    8.545      175
    8.560      194
    8.575      181
    8.590      173
    8.605      169
    8.620      171
    8.635      176
    8.650      187
    8.665      207
    8.680      187
    8.695      184
    8.710      192
    8.725      183
    8.740      178
    8.755      190
    8.770      192
    8.785      191
    8.800      176
    8.815      162
    8.830      182
    8.845      189
    8.860      201
    8.875      183
    8.890      189
    8.905      191
    8.920      186
    8.935      166
    8.950      180
    8.965      189
    8.980      183
    8.995      180
    9.010      182
    9.025      194
    9.040      194
    9.055      167
    9.070      186
    9.085      199
    9.100      190
    9.115      191
    9.130      197
    9.145      190
    9.160      214
    9.175      213
    9.190      213
    9.205      210
    9.220      207
    9.235      222
    9.250      192
    9.265      178
    9.280      193
    9.295      187
    9.310      174
    9.325      166
    9.340      178
    9.355      183
    9.370      195
    9.385      186
    9.400      198
    9.415      206
    9.430      220
    9.445      204
    9.460      201
    9.475      209
    9.490      182
    9.505      173
    9.520      206
    9.535      198
    9.550      202
    9.565      195
    9.580      206
    9.595      197
    9.610      216
    9.625      205
    9.640      243
    9.655      230
    9.670      246
    9.685      216
    9.700      191
    9.715      179
    9.730      192
    9.745      200
    9.760      185
    9.775      212
    9.790      191
    9.805      201
    9.820      206
    9.835      177
    9.850      189
    9.865      204
    9.880      188
    9.895      223
    9.910      197
    9.925      200
    9.940      195
    9.955      208
    9.970      198
    9.985      210
   10.000      204
   10.015      218
   10.030      219
   10.045      206
   10.060      195
   10.075      207
   10.090      204
   10.105      242
   10.120      191
   10.135      223
   10.150      220
   10.165      219
   10.180      232
   10.195      235
   10.210      238
   10.225      256
   10.240      265
   10.255      233
   10.270      268
   10.285      289
   10.300      313
   10.315      325
   10.330      327
   10.345      290
   10.360      231
   10.375      228
   10.390      207
   10.405      197
   10.420      211
   10.435      198
   10.450      188
   10.465      207
   10.480      201
   10.495      185
   10.510      186
   10.525      205
   10.540      206
   10.555      197
   10.570      187
   10.585      219
   10.600      225
   10.615      201
   10.630      209
   10.645      221
   10.660      227
   10.675      234
   10.690      246
   10.705      237
   10.720      227
   10.735      229
   10.750      200
   10.765      197
   10.780      211
   10.795      218
   10.810      203
   10.825      197
   10.840      192
   10.855      180
   10.870      179
   10.885      189
   10.900      220
   10.915      227
   10.930      224
   10.945      227
   10.960      236
   10.975      232
   10.990      221
   11.005      249
   11.020      268
   11.035      287
   11.050      327
   11.065      379
   11.080      377
   11.095      315
   11.110      274
   11.125      234
   11.140      200
   11.155      184
   11.170      191
   11.185      208
   11.200      216
   11.215      217
   11.230      218
   11.245      247
   11.260      259
   11.275      274
   11.290      253
   11.305      238
   11.320      214
   11.335      192
   11.350      197
   11.365      197
   11.380      191
   11.395      202
   11.410      214
   11.425      197
   11.440      187
   11.455      183
   11.470      182
   11.485      187
   11.500      198
   11.515      201
   11.530      204
   11.545      214
   11.560      223
   11.575      204
   11.590      229
   11.605      239
   11.620      229
   11.635      227
   11.650      248
   11.665      271
   11.680      276
   11.695      330
   11.710      310
   11.725      281
   11.740      239
   11.755      230
   11.770      234
   11.785      207
   11.800      229
   11.815      226
   11.830      254
   11.845      229
   11.860      263
   11.875      240
   11.890      292
   11.905      269
   11.920      267
   11.935      245
   11.950      188
   11.965      226
   11.980      209
   11.995      193
   12.010      206
   12.025      189
   12.040      192
   12.055      174
   12.070      195
   12.085      187
   12.100      183
   12.115      209
   12.130      213
   12.145      205
   12.160      209
   12.175      207
   12.190      202
   12.205      217
   12.220      206
   12.235      228
   12.250      217
   12.265      237
   12.280      250
   12.295      242
   12.310      297
   12.325      331
   12.340      402
   12.355      467
   12.370      535
   12.385      596
   12.400      693
   12.415      790
   12.430      920
   12.445     1111
   12.460     1400
   12.475     1700
   12.490     2012
   12.505     1857
   12.520     1584
   12.535     1392
   12.550     1429
   12.565     1446
   12.580     1369
   12.595     1168
   12.610      784
   12.625      512
   12.640      378
   12.655      294
   12.670      269
   12.685      274
   12.700      244
   12.715      270
   12.730      265
   12.745      276
   12.760      290
   12.775      324
   12.790      333
   12.805      373
   12.820      415
   12.835      432
   12.850      555
   12.865      604
   12.880      596
   12.895      517
   12.910      507
   12.925      502
   12.940      560
   12.955      668
   12.970      762
   12.985      931
   13.000     1117
   13.015     1418
   13.030     1773
   13.045     2223
   13.060     2352
   13.075     2168
   13.090     1903
   13.105     1795
   13.120     1940
   13.135     2366
   13.150     3095
   13.165     3571
   13.180     3040
   13.195     1950
   13.210     1053
   13.225      605
   13.240      466
   13.255      422
   13.270      387
   13.285      415
   13.300      429
   13.315      486
   13.330      509
   13.345      578
   13.360      653
   13.375      793
   13.390      902
   13.405      912
   13.420      946
   13.435      895
   13.450      679
   13.465      474
   13.480      363
   13.495      321
   13.510      260
   13.525      274
   13.540      286
   13.555      278
   13.570      279
   13.585      290
   13.600      276
   13.615      306
   13.630      346
   13.645      409
   13.660      462
   13.675      474
   13.690      393
   13.705      310
   13.720      249
   13.735      235
   13.750      210
   13.765      217
   13.780      215
   13.795      217
   13.810      210
   13.825      209
   13.840      208
   13.855      196
   13.870      220
   13.885      224
   13.900      216
   13.915      202
   13.930      222
   13.945      224
   13.960      222
   13.975      226
   13.990      223
   14.005      250
   14.020      260
   14.035      278
   14.050      291
   14.065      341
   14.080      349
   14.095      417
   14.110      465
   14.125      507
   14.140      504
   14.155      444
   14.170      412
   14.185      442
   14.200      476
   14.215      477
   14.230      472
   14.245      468
   14.260      472
   14.275      550
   14.290      609
   14.305      712
   14.320      843
   14.335      902
   14.350      831
   14.365      590
   14.380      417
   14.395      318
   14.410      270
   14.425      274
   14.440      236
   14.455      219
   14.470      198
   14.485      215
   14.500      210
   14.515      220
   14.530      218
   14.545      227
   14.560      210
   14.575      215
   14.590      185
   14.605      222
   14.620      219
   14.635      223
   14.650      225
   14.665      246
   14.680      236
   14.695      279
   14.710      323
   14.725      300
   14.740      346
   14.755      384
   14.770      451
   14.785      531
   14.800      602
   14.815      737
   14.830      868
   14.845      933
   14.860     1109
   14.875     1174
   14.890     1423
   14.905     1734
   14.920     1646
   14.935     1223
   14.950      791
   14.965      506
   14.980      399
   14.995      377
   15.010      361
   15.025      337
   15.040      369
   15.055      371
   15.070      427
   15.085      473
   15.100      513
   15.115      605
   15.130      698
   15.145      649
   15.160      571
   15.175      504
   15.190      468
   15.205      439
   15.220      370
   15.235      335
   15.250      323
   15.265      326
   15.280      322
   15.295      297
   15.310      351
   15.325      371
   15.340      390
   15.355      456
   15.370      544
   15.385      621
   15.400      718
   15.415      626
   15.430      493
   15.445      382
   15.460      325
   15.475      321
   15.490      322
   15.505      346
   15.520      379
   15.535      427
   15.550      482
   15.565      539
   15.580      631
   15.595      687
   15.610      643
   15.625      521
   15.640      410
   15.655      344
   15.670      278
   15.685      267
   15.700      278
   15.715      276
   15.730      287
   15.745      294
   15.760      287
   15.775      266
   15.790      274
   15.805      309
   15.820      359
   15.835      387
   15.850      398
   15.865      469
   15.880      536
   15.895      681
   15.910      720
   15.925      722
   15.940      720
   15.955      732
   15.970      635
   15.985      492
   16.000      400
   16.015      353
   16.030      341
   16.045      391
   16.060      405
   16.075      443
   16.090      506
   16.105      583
   16.120      560
   16.135      547
   16.150      585
   16.165      590
   16.180      695
   16.195      803
   16.210      982
   16.225     1159
   16.240     1220
   16.255     1056
   16.270      817
   16.285      725
   16.300      715
   16.315      780
   16.330      897
   16.345      943
   16.360      930
   16.375      759
   16.390      706
   16.405      722
   16.420      684
   16.435      708
   16.450      777
   16.465      880
   16.480     1025
   16.495     1202
   16.510     1183
   16.525     1017
   16.540      913
   16.555      936
   16.570      910
   16.585      905
   16.600      896
   16.615      747
   16.630      531
   16.645      432
   16.660      384
   16.675      347
   16.690      336
   16.705      341
   16.720      364
   16.735      392
   16.750      426
   16.765      476
   16.780      546
   16.795      606
   16.810      639
   16.825      593
   16.840      480
   16.855      381
   16.870      339
   16.885      297
   16.900      300
   16.915      321
   16.930      342
   16.945      389
   16.960      398
   16.975      425
   16.990      467
   17.005      502
   17.020      493
   17.035      426
   17.050      395
   17.065      357
   17.080      349
   17.095      373
   17.110      372
   17.125      377
   17.140      356
   17.155      340
   17.170      315
   17.185      345
   17.200      358
   17.215      388
   17.230      415
   17.245      488
   17.260      560
   17.275      599
   17.290      546
   17.305      414
   17.320      300
   17.335      301
   17.350      272
   17.365      244
   17.380      237
   17.395      250
   17.410      308
   17.425      329
   17.440      332
   17.455      324
   17.470      322
   17.485      287
   17.500      344
   17.515      361
   17.530      383
   17.545      358
   17.560      360
   17.575      300
   17.590      288
   17.605      284
   17.620      252
   17.635      234
   17.650      234
   17.665      233
   17.680      221
   17.695      253
   17.710      227
   17.725      190
   17.740      200
   17.755      216
   17.770      225
   17.785      222
   17.800      206
   17.815      191
   17.830      206
   17.845      196
   17.860      217
   17.875      197
   17.890      226
   17.905      237
   17.920      247
   17.935      239
   17.950      237
   17.965      287
   17.980      307
   17.995      298
   18.010      334
   18.025      365
   18.040      374
   18.055      458
   18.070      437
   18.085      389
   18.100      331
   18.115      279
   18.130      254
   18.145      267
   18.160      237
   18.175      236
   18.190      227
   18.205      218
   18.220      235
   18.235      243
   18.250      268
   18.265      261
   18.280      288
   18.295      359
   18.310      407
   18.325      485
   18.340      488
   18.355      537
   18.370      508
   18.385      515
   18.400      570
   18.415      622
   18.430      691
   18.445      669
   18.460      635
   18.475      554
   18.490      552
   18.505      537
   18.520      486
   18.535      388
   18.550      418
   18.565      394
   18.580      397
   18.595      422
   18.610      504
   18.625      518
   18.640      598
   18.655      613
   18.670      540
   18.685      454
   18.700      391
   18.715      358
   18.730      348
   18.745      334
   18.760      292
   18.775      270
   18.790      246
   18.805      242
   18.820      234
   18.835      244
   18.850      225
   18.865      216
   18.880      201
   18.895      197
   18.910      214
   18.925      221
   18.940      205
   18.955      204
   18.970      218
   18.985      224
   19.000      202
   19.015      200
   19.030      209
   19.045      218
   19.060      195
   19.075      190
   19.090      193
   19.105      186
   19.120      207
   19.135      189
   19.150      208
   19.165      204
   19.180      209
   19.195      194
   19.210      209
   19.225      208
   19.240      226
   19.255      244
   19.270      260
   19.285      289
   19.300      309
   19.315      312
   19.330      357
   19.345      387
   19.360      410
   19.375      425
   19.390      385
   19.405      362
   19.420      355
   19.435      317
   19.450      276
   19.465      255
   19.480      256
   19.495      260
   19.510      291
   19.525      318
   19.540      348
   19.555      397
   19.570      471
   19.585      533
   19.600      686
   19.615      758
   19.630      917
   19.645     1051
   19.660     1072
   19.675      925
   19.690      742
   19.705      607
   19.720      666
   19.735      724
   19.750      780
   19.765      785
   19.780      819
   19.795      656
   19.810      574
   19.825      488
   19.840      380
   19.855      366
   19.870      309
   19.885      282
   19.900      300
   19.915      301
   19.930      333
   19.945      340
   19.960      366
   19.975      335
   19.990      280
   20.005      261
   20.020      235
   20.035      221
   20.050      215
   20.065      213
   20.080      204
   20.095      201
   20.110      212
   20.125      199
   20.140      200
   20.155      200
   20.170      204
   20.185      186
   20.200      204
   20.215      211
   20.230      205
   20.245      198
   20.260      192
   20.275      214
   20.290      211
   20.305      218
   20.320      214
   20.335      220
   20.350      229
   20.365      196
   20.380      227
   20.395      228
   20.410      222
   20.425      257
   20.440      273
   20.455      301
   20.470      324
   20.485      349
   20.500      409
   20.515      448
   20.530      379
   20.545      356
   20.560      342
   20.575      359
   20.590      393
   20.605      434
   20.620      403
   20.635      330
   20.650      256
   20.665      247
   20.680      238
   20.695      231
   20.710      224
   20.725      237
   20.740      257
   20.755      220
   20.770      239
   20.785      213
   20.800      194
   20.815      229
   20.830      205
   20.845      226
   20.860      249
   20.875      244
   20.890      248
   20.905      236
   20.920      221
   20.935      251
   20.950      246
   20.965      277
   20.980      297
   20.995      281
   21.010      257
   21.025      233
   21.040      217
   21.055      194
   21.070      185
   21.085      199
   21.100      188
   21.115      200
   21.130      208
   21.145      213
   21.160      207
   21.175      206
   21.190      212
   21.205      246
   21.220      268
   21.235      291
   21.250      332
   21.265      357
   21.280      411
   21.295      514
   21.310      622
   21.325      680
   21.340      620
   21.355      564
   21.370      520
   21.385      511
   21.400      500
   21.415      526
   21.430      613
   21.445      734
   21.460      944
   21.475     1187
   21.490     1461
   21.505     1587
   21.520     1567
   21.535     1228
   21.550      892
   21.565      656
   21.580      571
   21.595      482
   21.610      463
   21.625      372
   21.640      356
   21.655      338
   21.670      309
   21.685      286
   21.700      273
   21.715      226
   21.730      233
   21.745      213
   21.760      210
   21.775      209
   21.790      206
   21.805      194
   21.820      203
   21.835      234
   21.850      237
   21.865      212
   21.880      200
   21.895      235
   21.910      234
   21.925      224
   21.940      226
   21.955      215
   21.970      218
   21.985      238
   22.000      253
   22.015      267
   22.030      296
   22.045      290
   22.060      290
   22.075      314
   22.090      343
   22.105      364
   22.120      371
   22.135      276
   22.150      271
   22.165      224
   22.180      228
   22.195      215
   22.210      257
   22.225      285
   22.240      307
   22.255      309
   22.270      343
   22.285      361
   22.300      370
   22.315      427
   22.330      489
   22.345      516
   22.360      459
   22.375      444
   22.390      370
   22.405      350
   22.420      382
   22.435      403
   22.450      469
   22.465      475
   22.480      534
   22.495      598
   22.510      678
   22.525      683
   22.540      613
   22.555      561
   22.570      564
   22.585      490
   22.600      453
   22.615      359
   22.630      301
   22.645      275
   22.660      271
   22.675      282
   22.690      316
   22.705      308
   22.720      315
   22.735      342
   22.750      388
   22.765      458
   22.780      448
   22.795      386
   22.810      365
   22.825      336
   22.840      347
   22.855      355
   22.870      418
   22.885      414
   22.900      375
   22.915      349
   22.930      280
   22.945      258
   22.960      254
   22.975      221
   22.990      214
   23.005      229
   23.020      231
   23.035      249
   23.050      243
   23.065      251
   23.080      266
   23.095      261
   23.110      224
   23.125      200
   23.140      193
   23.155      185
   23.170      172
   23.185      163
   23.200      177
   23.215      169
   23.230      185
   23.245      185
   23.260      194
   23.275      192
   23.290      192
   23.305      204
   23.320      175
   23.335      181
   23.350      176
   23.365      189
   23.380      178
   23.395      179
   23.410      176
   23.425      170
   23.440      170
   23.455      199
   23.470      194
   23.485      197
   23.500      201
   23.515      200
   23.530      192
   23.545      211
   23.560      212
   23.575      196
   23.590      219
   23.605      221
   23.620      242
   23.635      241
   23.650      276
   23.665      277
   23.680      280
   23.695      241
   23.710      233
   23.725      186
   23.740      191
   23.755      189
   23.770      201
   23.785      213
   23.800      188
   23.815      225
   23.830      216
   23.845      233
   23.860      265
   23.875      297
   23.890      320
   23.905      323
   23.920      356
   23.935      355
   23.950      303
   23.965      293
   23.980      284
   23.995      237
   24.010      253
   24.025      247
   24.040      295
   24.055      284
   24.070      271
   24.085      296
   24.100      308
   24.115      323
   24.130      305
   24.145      273
   24.160      232
   24.175      239
   24.190      245
   24.205      233
   24.220      200
   24.235      223
   24.250      230
   24.265      224
   24.280      202
   24.295      229
   24.310      208
   24.325      220
   24.340      219
   24.355      192
   24.370      203
   24.385      215
   24.400      233
   24.415      208
   24.430      189
   24.445      228
   24.460      181
   24.475      208
   24.490      200
   24.505      180
   24.520      201
   24.535      195
   24.550      190
   24.565      229
   24.580      220
   24.595      273
   24.610      333
   24.625      319
   24.640      323
   24.655      290
   24.670      286
   24.685      252
   24.700      251
   24.715      241
   24.730      229
   24.745      268
   24.760      252
   24.775      241
   24.790      247
   24.805      249
   24.820      313
   24.835      339
   24.850      341
   24.865      325
   24.880      309
   24.895      237
   24.910      230
   24.925      217
   24.940      193
   24.955      207
   24.970      224
   24.985      211
   25.000      214
   25.015      248
   25.030      273
   25.045      306
   25.060      290
   25.075      285
   25.090      262
   25.105      277
   25.120      279
   25.135      259
   25.150      274
   25.165      313
   25.180      299
   25.195      294
   25.210      286
   25.225      307
   25.240      333
   25.255      372
   25.270      379
   25.285      437
   25.300      492
   25.315      476
   25.330      473
   25.345      418
   25.360      376
   25.375      310
   25.390      247
   25.405      230
   25.420      245
   25.435      235
   25.450      237
   25.465      242
   25.480      282
   25.495      299
   25.510      306
   25.525      339
   25.540      329
   25.555      288
   25.570      251
   25.585      232
   25.600      242
   25.615      246
   25.630      250
   25.645      241
   25.660      221
   25.675      221
   25.690      217
   25.705      254
   25.720      249
   25.735      276
   25.750      279
   25.765      272
   25.780      254
   25.795      245
   25.810      294
   25.825      279
   25.840      271
   25.855      247
   25.870      228
   25.885      208
   25.900      210
   25.915      199
   25.930      196
   25.945      199
   25.960      206
   25.975      206
   25.990      202
   26.005      212
   26.020      206
   26.035      205
   26.050      209
   26.065      218
   26.080      197
   26.095      180
   26.110      167
   26.125      182
   26.140      180
   26.155      207
   26.170      191
   26.185      187
   26.200      191
   26.215      191
   26.230      200
   26.245      236
   26.260      259
   26.275      281
   26.290      280
   26.305      287
   26.320      259
   26.335      244
   26.350      233
   26.365      201
   26.380      206
   26.395      209
   26.410      216
   26.425      225
   26.440      254
   26.455      267
   26.470      290
   26.485      309
   26.500      377
   26.515      402
   26.530      376
   26.545      355
   26.560      351
   26.575      388
   26.590      394
   26.605      391
   26.620      360
   26.635      331
   26.650      272
   26.665      261
   26.680      241
   26.695      255
   26.710      247
   26.725      209
   26.740      234
   26.755      210
   26.770      221
   26.785      245
   26.800      215
   26.815      201
   26.830      221
   26.845      240
   26.860      225
   26.875      229
   26.890      215
   26.905      225
   26.920      224
   26.935      216
   26.950      205
   26.965      204
   26.980      225
   26.995      204
   27.010      207
   27.025      238
   27.040      247
   27.055      276
   27.070      247
   27.085      260
   27.100      275
   27.115      311
   27.130      343
   27.145      369
   27.160      390
   27.175      376
   27.190      380
   27.205      389
   27.220      385
   27.235      399
   27.250      407
   27.265      405
   27.280      379
   27.295      332
   27.310      328
   27.325      323
   27.340      287
   27.355      249
   27.370      248
   27.385      235
   27.400      214
   27.415      214
   27.430      223
   27.445      235
   27.460      242
   27.475      283
   27.490      275
   27.505      262
   27.520      256
   27.535      262
   27.550      245
   27.565      243
   27.580      225
   27.595      245
   27.610      232
   27.625      233
   27.640      219
   27.655      216
   27.670      229
   27.685      228
   27.700      253
   27.715      277
   27.730      288
   27.745      252
   27.760      228
   27.775      234
   27.790      257
   27.805      233
   27.820      221
   27.835      222
   27.850      247
   27.865      251
   27.880      266
   27.895      255
   27.910      260
   27.925      257
   27.940      258
   27.955      228
   27.970      227
   27.985      237
   28.000      231
   28.015      200
   28.030      237
   28.045      230
   28.060      227
   28.075      195
   28.090      199
   28.105      196
   28.120      196
   28.135      186
   28.150      202
   28.165      204
   28.180      193
   28.195      191
   28.210      203
   28.225      222
   28.240      219
   28.255      236
   28.270      236
   28.285      244
   28.300      229
   28.315      226
   28.330      242
   28.345      222
   28.360      255
   28.375      230
   28.390      238
   28.405      241
   28.420      223
   28.435      251
   28.450      248
   28.465      257
   28.480      248
   28.495      261
   28.510      280
   28.525      258
   28.540      279
   28.555      253
   28.570      256
   28.585      246
   28.600      245
   28.615      224
   28.630      237
   28.645      237
   28.660      228
   28.675      218
   28.690      246
   28.705      259
   28.720      223
   28.735      217
   28.750      228
   28.765      237
   28.780      235
   28.795      263
   28.810      228
   28.825      236
   28.840      239
   28.855      234
   28.870      238
   28.885      209
   28.900      203
   28.915      202
   28.930      208
   28.945      204
   28.960      206
   28.975      210
   28.990      212
   29.005      204
   29.020      197
   29.035      221
   29.050      240
   29.065      222
   29.080      244
   29.095      237
   29.110      219
   29.125      235
   29.140      226
   29.155      240
   29.170      260
   29.185      274
   29.200      258
   29.215      273
   29.230      267
   29.245      324
   29.260      339
   29.275      338
   29.290      322
   29.305      282
   29.320      265
   29.335      245
   29.350      242
   29.365      263
   29.380      272
   29.395      261
   29.410      254
   29.425      255
   29.440      263
   29.455      243
   29.470      230
   29.485      222
   29.500      220
   29.515      198
   29.530      188
   29.545      199
   29.560      197
   29.575      225
   29.590      206
   29.605      226
   29.620      224
   29.635      210
   29.650      217
   29.665      204
   29.680      211
   29.695      213
   29.710      200
   29.725      205
   29.740      178
   29.755      210
   29.770      199
   29.785      199
   29.800      196
   29.815      209
   29.830      197
   29.845      198
   29.860      187
   29.875      192
   29.890      197
   29.905      181
   29.920      199
   29.935      206
   29.950      191
   29.965      213
   29.980      211
   29.995      200
   30.010      204
   30.025      205
   30.040      216
   30.055      199
   30.070      218
   30.085      212
   30.100      238
   30.115      207
   30.130      227
   30.145      246
   30.160      241
   30.175      229
   30.190      233
   30.205      230
   30.220      246
   30.235      220
   30.250      213
   30.265      208
   30.280      211
   30.295      201
   30.310      214
   30.325      205
   30.340      211
   30.355      181
   30.370      189
   30.385      204
   30.400      192
   30.415      216
   30.430      231
   30.445      212
   30.460      240
   30.475      238
   30.490      267
   30.505      250
   30.520      267
   30.535      257
   30.550      261
   30.565      270
   30.580      259
   30.595      244
   30.610      242
   30.625      223
   30.640      229
   30.655      240
   30.670      243
   30.685      224
   30.700      202
   30.715      203
   30.730      209
   30.745      229
   30.760      191
   30.775      189
   30.790      203
   30.805      230
   30.820      203
   30.835      211
   30.850      205
   30.865      226
   30.880      221
   30.895      212
   30.910      234
   30.925      211
   30.940      203
   30.955      224
   30.970      243
   30.985      240
   31.000      243
   31.015      236
   31.030      234
   31.045      213
   31.060      213
   31.075      228
   31.090      231
   31.105      227
   31.120      220
   31.135      229
   31.150      237
   31.165      249
   31.180      249
   31.195      220
   31.210      231
   31.225      238
   31.240      228
   31.255      239
   31.270      234
   31.285      261
   31.300      250
   31.315      239
   31.330      268
   31.345      259
   31.360      274
   31.375      268
   31.390      283
   31.405      300
   31.420      323
   31.435      306
   31.450      284
   31.465      270
   31.480      255
   31.495      249
   31.510      249
   31.525      252
   31.540      270
   31.555      253
   31.570      248
   31.585      222
   31.600      211
   31.615      224
   31.630      244
   31.645      233
   31.660      220
   31.675      225
   31.690      229
   31.705      229
   31.720      185
   31.735      203
   31.750      193
   31.765      220
   31.780      209
   31.795      192
   31.810      200
   31.825      201
   31.840      202
   31.855      211
   31.870      194
   31.885      184
   31.900      187
   31.915      197
   31.930      195
   31.945      193
   31.960      209
   31.975      213
   31.990      201
   32.005      168
   32.020      172
   32.035      176
   32.050      176
   32.065      189
   32.080      204
   32.095      201
   32.110      204
   32.125      193
   32.140      177
   32.155      176
   32.170      166
   32.185      174
   32.200      180
   32.215      194
   32.230      200
   32.245      221
   32.260      199
   32.275      187
   32.290      188
   32.305      201
   32.320      191
   32.335      202
   32.350      218
   32.365      209
   32.380      205
   32.395      218
   32.410      229
   32.425      222
   32.440      246
   32.455      276
   32.470      288
   32.485      302
   32.500      327
   32.515      317
   32.530      315
   32.545      295
   32.560      283
   32.575      254
   32.590      229
   32.605      227
   32.620      245
   32.635      230
   32.650      221
   32.665      196
   32.680      183
   32.695      202
   32.710      199
   32.725      213
   32.740      212
   32.755      214
   32.770      221
   32.785      214
   32.800      202
   32.815      205
   32.830      221
   32.845      200
   32.860      205
   32.875      206
   32.890      209
   32.905      220
   32.920      218
   32.935      222
   32.950      245
   32.965      275
   32.980      265
   32.995      272
   33.010      286
   33.025      299
   33.040      301
   33.055      302
   33.070      268
   33.085      250
   33.100      244
   33.115      251
   33.130      257
   33.145      235
   33.160      228
   33.175      235
   33.190      239
   33.205      251
   33.220      232
   33.235      219
   33.250      229
   33.265      225
   33.280      235
   33.295      256
   33.310      267
   33.325      311
   33.340      333
   33.355      286
   33.370      268
   33.385      262
   33.400      244
   33.415      243
   33.430      236
   33.445      236
   33.460      255
   33.475      250
   33.490      264
   33.505      231
   33.520      228
   33.535      232
   33.550      238
   33.565      234
   33.580      223
   33.595      211
   33.610      213
   33.625      228
   33.640      210
   33.655      196
   33.670      196
   33.685      198
   33.700      237
   33.715      202
   33.730      210
   33.745      175
   33.760      172
   33.775      188
   33.790      191
   33.805      200
   33.820      198
   33.835      173
   33.850      179
   33.865      207
   33.880      186
   33.895      182
   33.910      201
   33.925      213
   33.940      192
   33.955      207
   33.970      203
   33.985      224
   34.000      217
   34.015      239
   34.030      224
   34.045      216
   34.060      214
   34.075      209
   34.090      214
   34.105      187
   34.120      190
   34.135      227
   34.150      210
   34.165      189
   34.180      202
   34.195      201
   34.210      210
   34.225      195
   34.240      203
   34.255      194
   34.270      204
   34.285      224
   34.300      227
   34.315      241
   34.330      218
   34.345      226
   34.360      214
   34.375      204
   34.390      196
   34.405      196
   34.420      201
   34.435      194
   34.450      205
   34.465      192
   34.480      209
   34.495      198
   34.510      208
   34.525      197
   34.540      231
   34.555      227
   34.570      191
   34.585      201
   34.600      195
   34.615      199
   34.630      226
   34.645      213
   34.660      216
   34.675      219
   34.690      230
   34.705      247
   34.720      234
   34.735      252
   34.750      253
   34.765      263
   34.780      297
   34.795      265
   34.810      257
   34.825      265
   34.840      281
   34.855      298
   34.870      298
   34.885      293
   34.900      303
   34.915      312
   34.930      335
   34.945      317
   34.960      299
   34.975      299
   34.990      326
   35.005      336
   35.020      331
   35.035      344
   35.050      347
   35.065      340
   35.080      355
   35.095      327
   35.110      294
   35.125      283
   35.140      255
   35.155      255
   35.170      250
   35.185      240
   35.200      224
   35.215      219
   35.230      229
   35.245      206
   35.260      206
   35.275      206
   35.290      211
   35.305      197
   35.320      189
   35.335      182
   35.350      196
   35.365      199
   35.380      191
   35.395      186
   35.410      202
   35.425      196
   35.440      161
   35.455      161
   35.470      183
   35.485      169
   35.500      154
   35.515      161
   35.530      184
   35.545      182
   35.560      173
   35.575      184
   35.590      157
   35.605      179
   35.620      191
   35.635      159
   35.650      179
   35.665      194
   35.680      193
   35.695      187
   35.710      176
   35.725      172
   35.740      204
   35.755      208
   35.770      213
   35.785      206
   35.800      195
   35.815      198
   35.830      209
   35.845      209
   35.860      202
   35.875      211
   35.890      221
   35.905      221
   35.920      216
   35.935      196
   35.950      186
   35.965      202
   35.980      180
   35.995      174
   36.010      185
   36.025      193
   36.040      181
   36.055      185
   36.070      200
   36.085      168
   36.100      189
   36.115      176
   36.130      198
   36.145      201
   36.160      185
   36.175      200
   36.190      185
   36.205      193
   36.220      183
   36.235      188
   36.250      176
   36.265      198
   36.280      200
   36.295      204
   36.310      200
   36.325      174
   36.340      184
   36.355      166
   36.370      193
   36.385      193
   36.400      177
   36.415      176
   36.430      196
   36.445      190
   36.460      179
   36.475      187
   36.490      189
   36.505      196
   36.520      201
   36.535      177
   36.550      174
   36.565      190
   36.580      176
   36.595      178
   36.610      184
   36.625      189
   36.640      179
   36.655      191
   36.670      189
   36.685      195
   36.700      200
   36.715      210
   36.730      216
   36.745      206
   36.760      188
   36.775      194
   36.790      196
   36.805      190
   36.820      176
   36.835      163
   36.850      172
   36.865      173
   36.880      174
   36.895      162
   36.910      149
   36.925      165
   36.940      177
   36.955      145
   36.970      165
   36.985      171
   37.000      175
   37.015      183
   37.030      167
   37.045      165
   37.060      178
   37.075      167
   37.090      183
   37.105      168
   37.120      171
   37.135      163
   37.150      150
   37.165      165
   37.180      176
   37.195      173
   37.210      161
   37.225      185
   37.240      164
   37.255      159
   37.270      206
   37.285      175
   37.300      184
   37.315      173
   37.330      177
   37.345      180
   37.360      176
   37.375      195
   37.390      171
   37.405      158
   37.420      156
   37.435      171
   37.450      184
   37.465      180
   37.480      212
   37.495      218
   37.510      194
   37.525      200
   37.540      198
   37.555      188
   37.570      191
   37.585      183
   37.600      187
   37.615      169
   37.630      179
   37.645      184
   37.660      188
   37.675      191
   37.690      183
   37.705      197
   37.720      173
   37.735      177
   37.750      171
   37.765      178
   37.780      201
   37.795      235
   37.810      212
   37.825      216
   37.840      244
   37.855      186
   37.870      186
   37.885      194
   37.900      175
   37.915      180
   37.930      183
   37.945      167
   37.960      171
   37.975      185
   37.990      178
   38.005      176
   38.020      192
   38.035      182
   38.050      185
   38.065      190
   38.080      184
   38.095      184
   38.110      182
   38.125      194
   38.140      180
   38.155      184
   38.170      191
   38.185      160
   38.200      163
   38.215      183
   38.230      178
   38.245      173
   38.260      160
   38.275      154
   38.290      175
   38.305      175
   38.320      195
   38.335      194
   38.350      174
   38.365      164
   38.380      185
   38.395      173
   38.410      166
   38.425      174
   38.440      154
   38.455      157
   38.470      154
   38.485      170
   38.500      182
   38.515      181
   38.530      168
   38.545      175
   38.560      159
   38.575      170
   38.590      162
   38.605      148
   38.620      158
   38.635      151
   38.650      162
   38.665      158
   38.680      136
   38.695      155
   38.710      135
   38.725      160
   38.740      150
   38.755      154
   38.770      137
   38.785      176
   38.800      159
   38.815      157
   38.830      147
   38.845      152
   38.860      130
   38.875      160
   38.890      148
   38.905      159
   38.920      159
   38.935      162
   38.950      148
   38.965      156
   38.980      151
   38.995      141
   39.010      154
   39.025      149
   39.040      156
   39.055      166
   39.070      145
   39.085      148
   39.100      161
   39.115      164
   39.130      149
   39.145      164
   39.160      170
   39.175      189
   39.190      191
   39.205      177
   39.220      185
   39.235      165
   39.250      185
   39.265      185
   39.280      166
   39.295      176
   39.310      188
   39.325      178
   39.340      170
   39.355      171
   39.370      180
   39.385      174
   39.400      183
   39.415      182
   39.430      171
   39.445      138
   39.460      128
   39.475      143
   39.490      142
   39.505      153
   39.520      137
   39.535      147
   39.550      121
   39.565      138
   39.580      127
   39.595      152
   39.610      157
   39.625      166
   39.640      168
   39.655      168
   39.670      168
   39.685      151
   39.700      135
   39.715      145
   39.730      135
   39.745      152
   39.760      162
   39.775      154
   39.790      152
   39.805      185
   39.820      166
   39.835      178
   39.850      173
   39.865      184
   39.880      181
   39.895      192
   39.910      198
   39.925      190
   39.940      202
   39.955      216
   39.970      177
   39.985      193
   40.000      180
   40.015      177
   40.030      180
   40.045      173
   40.060      169
   40.075      153
   40.090      171
   40.105      156
   40.120      189
   40.135      197
   40.150      180
   40.165      182
   40.180      174
   40.195      175
   40.210      186
   40.225      172
   40.240      184
   40.255      181
   40.270      167
   40.285      148
   40.300      155
   40.315      148
   40.330      172
   40.345      175
   40.360      156
   40.375      152
   40.390      144
   40.405      156
   40.420      155
   40.435      156
   40.450      134
   40.465      151
   40.480      169
   40.495      162
   40.510      151
   40.525      156
   40.540      145
   40.555      144
   40.570      140
   40.585      145
   40.600      162
   40.615      147
   40.630      149
   40.645      139
   40.660      140
   40.675      150
   40.690      154
   40.705      136
   40.720      148
   40.735      143
   40.750      140
   40.765      125
   40.780      139
   40.795      148
   40.810      144
   40.825      140
   40.840      146
   40.855      148
   40.870      158
   40.885      156
   40.900      149
   40.915      158
   40.930      150
   40.945      153
   40.960      147
   40.975      132
   40.990      141
   41.005      144
   41.020      150
   41.035      139
   41.050      133
   41.065      156
   41.080      129
   41.095      159
   41.110      150
   41.125      148
   41.140      164
   41.155      158
   41.170      144
   41.185      144
   41.200      142
   41.215      136
   41.230      151
   41.245      154
   41.260      161
   41.275      165
   41.290      153
   41.305      173
   41.320      154
   41.335      149
   41.350      157
   41.365      136
   41.380      159
   41.395      154
   41.410      143
   41.425      142
   41.440      164
   41.455      162
   41.470      142
   41.485      161
   41.500      153
   41.515      150
   41.530      151
   41.545      151
   41.560      148
   41.575      168
   41.590      157
   41.605      150
   41.620      151
   41.635      136
   41.650      148
   41.665      149
   41.680      140
   41.695      140
   41.710      144
   41.725      145
   41.740      149
   41.755      148
   41.770      149
   41.785      138
   41.800      146
   41.815      158
   41.830      137
   41.845      164
   41.860      150
   41.875      148
   41.890      162
   41.905      138
   41.920      119
   41.935      126
   41.950      129
   41.965      137
   41.980      149
   41.995      143
   42.010      141
   42.025      146
   42.040      144
   42.055      150
   42.070      156
   42.085      157
   42.100      170
   42.115      144
   42.130      134
   42.145      148
   42.160      147
   42.175      159
   42.190      157
   42.205      157
   42.220      176
   42.235      143
   42.250      160
   42.265      146
   42.280      158
   42.295      149
   42.310      134
   42.325      140
   42.340      146
   42.355      139
   42.370      147
   42.385      150
   42.400      163
   42.415      169
   42.430      174
   42.445      170
   42.460      181
   42.475      173
   42.490      165
   42.505      151
   42.520      154
   42.535      154
   42.550      150
   42.565      146
   42.580      153
   42.595      133
   42.610      132
   42.625      135
   42.640      158
   42.655      148
   42.670      148
   42.685      162
   42.700      162
   42.715      144
   42.730      145
   42.745      143
   42.760      152
   42.775      154
   42.790      140
   42.805      133
   42.820      131
   42.835      134
   42.850      127
   42.865      125
   42.880      120
   42.895      150
   42.910      126
   42.925      153
   42.940      139
   42.955      133
   42.970      144
   42.985      133
   43.000      152
   43.015      155
   43.030      133
   43.045      142
   43.060      133
   43.075      138
   43.090      137
   43.105      128
   43.120      132
   43.135      134
   43.150      134
   43.165      155
   43.180      129
   43.195      143
   43.210      146
   43.225      141
   43.240      137
   43.255      148
   43.270      150
   43.285      163
   43.300      143
   43.315      147
   43.330      148
   43.345      147
   43.360      149
   43.375      141
   43.390      129
   43.405      139
   43.420      118
   43.435      144
   43.450      159
   43.465      144
   43.480      158
   43.495      157
   43.510      147
   43.525      161
   43.540      143
   43.555      152
   43.570      155
   43.585      145
   43.600      152
   43.615      147
   43.630      144
   43.645      140
   43.660      156
   43.675      167
   43.690      151
   43.705      144
   43.720      152
   43.735      136
   43.750      131
   43.765      145
   43.780      150
   43.795      158
   43.810      170
   43.825      152
   43.840      175
   43.855      153
   43.870      138
   43.885      153
   43.900      143
   43.915      144
   43.930      153
   43.945      137
   43.960      131
   43.975      139
   43.990      139
   44.005      156
   44.020      145
   44.035      135
   44.050      147
   44.065      145
   44.080      151
   44.095      158
   44.110      157
   44.125      152
   44.140      158
   44.155      149
   44.170      147
   44.185      156
   44.200      148
   44.215      155
   44.230      154
   44.245      152
   44.260      150
   44.275      143
   44.290      164
   44.305      170
   44.320      179
   44.335      156
   44.350      171
   44.365      181
   44.380      170
   44.395      189
   44.410      177
   44.425      178
   44.440      173
   44.455      173
   44.470      165
   44.485      184
   44.500      163
   44.515      171
   44.530      178
   44.545      162
   44.560      157
   44.575      158
   44.590      148
   44.605      153
   44.620      164
   44.635      141
   44.650      142
   44.665      154
   44.680      137
   44.695      127
   44.710      141
   44.725      141
   44.740      143
   44.755      138
   44.770      134
   44.785      140
   44.800      146
   44.815      136
   44.830      151
   44.845      149
   44.860      152
   44.875      138
   44.890      155
   44.905      165
   44.920      152
   44.935      142
   44.950      144
   44.965      155
   44.980      141
   44.995      135
   45.010      117
   45.025      141
   45.040      139
   45.055      136
   45.070      130
   45.085      143
   45.100      152
   45.115      137
   45.130      149
   45.145      131
   45.160      122
   45.175      142
   45.190      131
   45.205      129
   45.220      130
   45.235      140
   45.250      148
   45.265      142
   45.280      147
   45.295      134
   45.310      135
   45.325      147
   45.340      134
   45.355      132
   45.370      137
   45.385      142
   45.400      135
   45.415      130
   45.430      135
   45.445      143
   45.460      143
   45.475      136
   45.490      150
   45.505      159
   45.520      136
   45.535      124
   45.550      135
   45.565      154
   45.580      150
   45.595      151
   45.610      159
   45.625      146
   45.640      140
   45.655      142
   45.670      167
   45.685      140
   45.700      131
   45.715      124
   45.730      146
   45.745      132
   45.760      153
   45.775      152
   45.790      147
   45.805      144
   45.820      115
   45.835      140
   45.850      143
   45.865      171
   45.880      170
   45.895      142
   45.910      146
   45.925      155
   45.940      139
   45.955      148
   45.970      149
   45.985      140
