    4.000       52
    4.015       41
    4.030       38
    4.045       43
    4.060       47
    4.075       51
    4.090       47
    4.105       47
    4.120       40
    4.135       55
    4.150       41
    4.165       49
    4.180       52
    4.195       50
    4.210       54
    4.225       47
    4.240       46
    4.255       62
    4.270       49
    4.285       52
    4.300       41
    4.315       46
    4.330       51
    4.345       57
    4.360       51
    4.375       52
    4.390       45
    4.405       57
    4.420       53
    4.435       43
    4.450       43
    4.465       40
    4.480       53
    4.495       43
    4.510       46
    4.525       40
    4.540       42
    4.555       50
    4.570       49
    4.585       51
    4.600       55
    4.615       57
    4.630       38
    4.645       45
    4.660       49
    4.675       45
    4.690       35
    4.705       40
    4.720       37
    4.735       46
    4.750       45
    4.765       42
    4.780       37
    4.795       40
    4.810       39
    4.825       48
    4.840       48
    4.855       38
    4.870       40
    4.885       43
    4.900       48
    4.915       45
    4.930       47
    4.945       44
    4.960       43
    4.975       37
    4.990       51
    5.005       50
    5.020       43
    5.035       43
    5.050       39
    5.065       40
    5.080       46
    5.095       43
    5.110       47
    5.125       39
    5.140       41
    5.155       34
    5.170       36
    5.185       44
    5.200       50
    5.215       53
    5.230       53
    5.245       44
    5.260       40
    5.275       35
    5.290       42
    5.305       37
    5.320       38
    5.335       42
    5.350       44
    5.365       37
    5.380       38
    5.395       49
    5.410       35
    5.425       38
    5.440       42
    5.455       44
    5.470       41
    5.485       40
    5.500       50
    5.515       52
    5.530       45
    5.545       42
    5.560       39
    5.575       42
    5.590       41
    5.605       37
    5.620       42
    5.635       43
    5.650       42
    5.665       39
    5.680       49
    5.695       36
    5.710       43
    5.725       40
    5.740       43
    5.755       32
    5.770       38
    5.785       44
    5.800       35
    5.815       30
    5.830       37
    5.845       46
    5.860       39
    5.875       46
    5.890       42
    5.905       35
    5.920       32
    5.935       46
    5.950       48
    5.965       55
    5.980       46
    5.995       38
    6.010       40
    6.025       39
    6.040       39
    6.055       45
    6.070       48
    6.085       45
    6.100       54
    6.115       49
    6.130       43
    6.145       44
    6.160       50
    6.175       50
    6.190       48
    6.205       58
    6.220       51
    6.235       47
    6.250       55
    6.265       60
    6.280       60
    6.295       67
    6.310       72
    6.325       69
    6.340       64
    6.355       74
    6.370       78
    6.385       85
    6.400       98
    6.415       82
    6.430       90
    6.445      117
    6.460      130
    6.475      119
    6.490      139
    6.505      145
    6.520      145
    6.535      163
    6.550      173
    6.565      201
    6.580      240
    6.595      284
    6.610      380
    6.625      393
    6.640      316
    6.655      303
    6.670      332
    6.685      288
    6.700      174
    6.715      105
    6.730       71
    6.745       53
    6.760       40
    6.775       41
    6.790       44
    6.805       43
    6.820       44
    6.835       37
    6.850       39
    6.865       44
    6.880       46
    6.895       43
    6.910       43
    6.925       45
    6.940       41
    6.955       44
    6.970       44
    6.985       39
    7.000       45
    7.015       42
    7.030       45
    7.045       51
    7.060       52
    7.075       55
    7.090       49
    7.105       57
    7.120       67
    7.135       54
    7.150       67
    7.165       91
    7.180       85
    7.195       98
    7.210       97
    7.225       79
    7.240       52
    7.255       44
    7.270       40
    7.285       37
    7.300       40
    7.315       42
    7.330       43
    7.345       44
    7.360       49
    7.375       28
    7.390       38
    7.405       36
    7.420       45
    7.435       47
    7.450       37
    7.465       28
    7.480       36
    7.495       44
    7.510       43
    7.525       41
    7.540       38
    7.555       44
    7.570       38
    7.585       40
    7.600       35
    7.615       56
    7.630       46
    7.645       33
    7.660       41
    7.675       42
    7.690       48
    7.705       43
    7.720       46
    7.735       53
    7.750       49
    7.765       42
    7.780       34
    7.795       29
    7.810       40
    7.825       42
    7.840       37
    7.855       44
    7.870       47
    7.885       40
    7.900       38
    7.915       42
    7.930       35
    7.945       31
    7.960       43
    7.975       49
    7.990       42
    8.005       41
    8.020       38
    8.035       51
    8.050       43
    8.065       46
    8.080       47
    8.095       38
    8.110       42
    8.125       41
    8.140       31
    8.155       36
    8.170       39
    8.185       40
    8.200       41
    8.215       39
    8.230       45
    8.245       41
    8.260       36
    8.275       43
    8.290       38
    8.305       32
    8.320       37
    8.335       43
    8.350       39
    8.365       35
    8.380       34
    8.395       34
    8.410       29
    8.425       39
    8.440       39
    8.455       42
    8.470       49
    8.485       49
    8.500       65
    8.515       51
    8.530       34
    8.545       38
    8.560       46
    8.575       44
    8.590       44
    8.605       47
    8.620       48
    8.635       47
    8.650       41
    8.665       34
    8.680       46
    8.695       34
    8.710       40
    8.725       39
    8.740       41
    8.755       42
    8.770       52
    8.785       40
    8.800       34
    8.815       47
    8.830       33
    8.845       36
    8.860       30
    8.875       34
    8.890       38
    8.905       39
    8.920       38
    8.935       44
    8.950       43
    8.965       38
    8.980       46
    8.995       53
    9.010       52
    9.025       48
    9.040       50
    9.055       37
    9.070       48
    9.085       52
    9.100       57
    9.115       42
    9.130       33
    9.145       35
    9.160       53
    9.175       46
    9.190       48
    9.205       41
    9.220       37
    9.235       39
    9.250       40
    9.265       36
    9.280       39
    9.295       37
    9.310       42
    9.325       36
    9.340       39
    9.355       40
    9.370       44
    9.385       43
    9.400       57
    9.415       53
    9.430       44
    9.445       47
    9.460       51
    9.475       42
    9.490       53
    9.505       44
    9.520       39
    9.535       48
    9.550       54
    9.565       47
    9.580       38
    9.595       39
    9.610       52
    9.625       51
    9.640       38
    9.655       41
    9.670       43
    9.685       43
    9.700       39
    9.715       45
    9.730       46
    9.745       42
    9.760       49
    9.775       47
    9.790       50
    9.805       51
    9.820       56
    9.835       49
    9.850       51
    9.865       42
    9.880       44
    9.895       33
    9.910       48
    9.925       51
    9.940       49
    9.955       44
    9.970       43
    9.985       37
   10.000       52
   10.015       48
   10.030       43
   10.045       38
   10.060       45
   10.075       49
   10.090       57
   10.105       57
   10.120       43
   10.135       43
   10.150       47
   10.165       46
   10.180       54
   10.195       49
   10.210       58
   10.225       47
   10.240       47
   10.255       50
   10.270       49
   10.285       48
   10.300       50
   10.315       41
   10.330       48
   10.345       66
   10.360       61
   10.375       55
   10.390       48
   10.405       54
   10.420       58
   10.435       64
   10.450       60
   10.465       55
   10.480       71
   10.495       83
   10.510       81
   10.525       73
   10.540       53
   10.555       47
   10.570       43
   10.585       48
   10.600       55
   10.615       45
   10.630       52
   10.645       55
   10.660       69
   10.675       74
   10.690       81
   10.705       72
   10.720       70
   10.735       78
   10.750       95
   10.765      102
   10.780      118
   10.795      145
   10.810      160
   10.825      141
   10.840      141
   10.855      185
   10.870      219
   10.885      242
   10.900      206
   10.915      146
   10.930      110
   10.945       78
   10.960       59
   10.975       53
   10.990       47
   11.005       43
   11.020       46
   11.035       62
   11.050       54
   11.065       45
   11.080       53
   11.095       52
   11.110       56
   11.125       52
   11.140       53
   11.155       51
   11.170       49
   11.185       54
   11.200       61
   11.215       64
   11.230       62
   11.245       70
   11.260       79
   11.275       76
   11.290       67
   11.305       56
   11.320       44
   11.335       57
   11.350       50
   11.365       44
   11.380       51
   11.395       68
   11.410       58
   11.425       59
   11.440       68
   11.455       67
   11.470       65
   11.485       65
   11.500       54
   11.515       51
   11.530       48
   11.545       52
   11.560       52
   11.575       40
   11.590       37
   11.605       36
   11.620       38
   11.635       46
   11.650       45
   11.665       44
   11.680       52
   11.695       56
   11.710       46
   11.725       51
   11.740       55
   11.755       54
   11.770       48
   11.785       63
   11.800       56
   11.815       74
   11.830       79
   11.845       74
   11.860       82
   11.875       67
   11.890       66
   11.905       74
   11.920       75
   11.935       63
   11.950       62
   11.965       57
   11.980       55
   11.995       51
   12.010       51
   12.025       58
   12.040       60
   12.055       56
   12.070       61
   12.085       65
   12.100       59
   12.115       55
   12.130       57
   12.145       60
   12.160       54
   12.175       44
   12.190       39
   12.205       48
   12.220       52
   12.235       47
   12.250       40
   12.265       36
   12.280       35
   12.295       33
   12.310       40
   12.325       39
   12.340       46
   12.355       50
   12.370       46
   12.385       46
   12.400       54
   12.415       48
   12.430       63
   12.445       49
   12.460       52
   12.475       45
   12.490       43
   12.505       53
   12.520       52
   12.535       60
   12.550       66
   12.565       73
   12.580       87
   12.595       96
   12.610       92
   12.625      111
   12.640      128
   12.655      147
   12.670      194
   12.685      231
   12.700      268
   12.715      294
   12.730      260
   12.745      207
   12.760      182
   12.775      157
   12.790      158
   12.805      151
   12.820      129
   12.835       92
   12.850       71
   12.865       67
   12.880       60
   12.895       67
   12.910       61
   12.925       62
   12.940       62
   12.955       70
   12.970       72
   12.985       93
   13.000       82
   13.015      121
   13.030      132
   13.045      134
   13.060      175
   13.075      221
   13.090      211
   13.105      184
   13.120      153
   13.135      159
   13.150      153
   13.165      149
   13.180      191
   13.195      231
   13.210      259
   13.225      298
   13.240      322
   13.255      398
   13.270      495
   13.285      526
   13.300      499
   13.315      380
   13.330      371
   13.345      479
   13.360      647
   13.375      857
   13.390      904
   13.405      724
   13.420      567
   13.435      306
   13.450      160
   13.465      128
   13.480      114
   13.495      114
   13.510      126
   13.525      118
   13.540      134
   13.555      130
   13.570      162
   13.585      189
   13.600      215
   13.615      265
   13.630      296
   13.645      288
   13.660      269
   13.675      223
   13.690      165
   13.705      114
   13.720       77
   13.735       61
   13.750       65
   13.765       74
   13.780       54
   13.795       60
   13.810       70
   13.825       60
   13.840       75
   13.855       65
   13.870       58
   13.885       65
   13.900       68
   13.915       71
   13.930       71
   13.945       62
   13.960       52
   13.975       56
   13.990       59
   14.005       55
   14.020       55
   14.035       69
   14.050       50
   14.065       49
   14.080       53
   14.095       54
   14.110       51
   14.125       58
   14.140       57
   14.155       59
   14.170       60
   14.185       58
   14.200       71
   14.215       81
   14.230       88
   14.245       82
   14.260      104
   14.275      110
   14.290      107
   14.305      144
   14.320      165
   14.335      208
   14.350      219
   14.365      217
   14.380      202
   14.395      157
   14.410      137
   14.425      142
   14.440      155
   14.455      157
   14.470      167
   14.485      147
   14.500      146
   14.515      155
   14.530      172
   14.545      211
   14.560      247
   14.575      262
   14.590      265
   14.605      209
   14.620      143
   14.635       95
   14.650       73
   14.665       70
   14.680       62
   14.695       55
   14.710       53
   14.725       55
   14.740       49
   14.755       45
   14.770       55
   14.785       54
   14.800       54
   14.815       51
   14.830       45
   14.845       59
   14.860       56
   14.875       60
   14.890       59
   14.905       60
   14.920       77
   14.935       61
   14.950       67
   14.965       90
   14.980       97
   14.995      119
   15.010      130
   15.025      167
   15.040      188
   15.055      220
   15.070      281
   15.085      334
   15.100      385
   15.115      443
   15.130      509
   15.145      609
   15.160      725
   15.175      693
   15.190      547
   15.205      334
   15.220      180
   15.235      142
   15.250      115
   15.265      139
   15.280      141
   15.295      139
   15.310      150
   15.325      142
   15.340      155
   15.355      171
   15.370      182
   15.385      234
   15.400      215
   15.415      176
   15.430      168
   15.445      145
   15.460      135
   15.475      143
   15.490      120
   15.505      100
   15.520      124
   15.535      126
   15.550      115
   15.565      133
   15.580      166
   15.595      220
   15.610      266
   15.625      295
   15.640      319
   15.655      360
   15.670      339
   15.685      291
   15.700      215
   15.715      176
   15.730      176
   15.745      166
   15.760      189
   15.775      173
   15.790      153
   15.805      149
   15.820      163
   15.835      207
   15.850      220
   15.865      236
   15.880      202
   15.895      146
   15.910      120
   15.925       99
   15.940       78
   15.955       80
   15.970       61
   15.985       57
   16.000       70
   16.015       65
   16.030       75
   16.045       70
   16.060       92
   16.075       83
   16.090      104
   16.105      118
   16.120      140
   16.135      150
   16.150      172
   16.165      217
   16.180      226
   16.195      239
   16.210      226
   16.225      266
   16.240      234
   16.255      194
   16.270      120
   16.285      109
   16.300      102
   16.315       96
   16.330       90
   16.345      104
   16.360      110
   16.375      134
   16.390      140
   16.405      138
   16.420      161
   16.435      186
   16.450      206
   16.465      240
   16.480      322
   16.495      392
   16.510      508
   16.525      449
   16.540      374
   16.555      292
   16.570      252
   16.585      264
   16.600      291
   16.615      307
   16.630      291
   16.645      297
   16.660      262
   16.675      237
   16.690      233
   16.705      247
   16.720      209
   16.735      187
   16.750      206
   16.765      241
   16.780      282
   16.795      280
   16.810      272
   16.825      258
   16.840      272
   16.855      257
   16.870      281
   16.885      234
   16.900      194
   16.915      167
   16.930      121
   16.945       96
   16.960       76
   16.975       93
   16.990      100
   17.005      101
   17.020       98
   17.035      122
   17.050      142
   17.065      156
   17.080      193
   17.095      242
   17.110      249
   17.125      238
   17.140      198
   17.155      171
   17.170      146
   17.185      149
   17.200      181
   17.215      184
   17.230      224
   17.245      283
   17.260      364
   17.275      367
   17.290      386
   17.305      402
   17.320      340
   17.335      256
   17.350      189
   17.365      138
   17.380      126
   17.395      119
   17.410      120
   17.425      105
   17.440       99
   17.455      108
   17.470      108
   17.485      101
   17.500      105
   17.515      112
   17.530      134
   17.545      168
   17.560      218
   17.575      225
   17.590      207
   17.605      165
   17.620      116
   17.635       88
   17.650       84
   17.665       87
   17.680       74
   17.695      103
   17.710      100
   17.725      116
   17.740      115
   17.755      124
   17.770       96
   17.785      103
   17.800      100
   17.815      110
   17.830      110
   17.845      103
   17.860      102
   17.875       93
   17.890       91
   17.905       83
   17.920       99
   17.935       84
   17.950       74
   17.965       75
   17.980       57
   17.995       63
   18.010       62
   18.025       77
   18.040       60
   18.055       55
   18.070       54
   18.085       57
   18.100       55
   18.115       58
   18.130       62
   18.145       56
   18.160       66
   18.175       59
   18.190       57
   18.205       62
   18.220       57
   18.235       67
   18.250       77
   18.265       81
   18.280      109
   18.295      123
   18.310      151
   18.325      155
   18.340      176
   18.355      198
   18.370      202
   18.385      217
   18.400      192
   18.415      183
   18.430      139
   18.445      100
   18.460       82
   18.475       86
   18.490       65
   18.505       64
   18.520       54
   18.535       82
   18.550       81
   18.565       74
   18.580       85
   18.595       97
   18.610       92
   18.625       93
   18.640      136
   18.655      136
   18.670      153
   18.685      122
   18.700      118
   18.715      114
   18.730      145
   18.745      165
   18.760      138
   18.775      123
   18.790      109
   18.805      102
   18.820       92
   18.835       75
   18.850       81
   18.865       76
   18.880       69
   18.895       71
   18.910       64
   18.925       68
   18.940       73
   18.955       98
   18.970      111
   18.985       96
   19.000       87
   19.015       86
   19.030       79
   19.045      102
   19.060       85
   19.075       99
   19.090       79
   19.105       73
   19.120       75
   19.135       54
   19.150       61
   19.165       70
   19.180       69
   19.195       67
   19.210       62
   19.225       74
   19.240       51
   19.255       45
   19.270       54
   19.285       50
   19.300       59
   19.315       59
   19.330       65
   19.345       54
   19.360       73
   19.375       66
   19.390       52
   19.405       53
   19.420       60
   19.435       63
   19.450       67
   19.465       58
   19.480       61
   19.495       83
   19.510       81
   19.525       66
   19.540       82
   19.555       96
   19.570      104
   19.585      126
   19.600      119
   19.615      110
   19.630      105
   19.645       90
   19.660      121
   19.675      142
   19.690      165
   19.705      136
   19.720      137
   19.735      142
   19.750      128
   19.765      102
   19.780       83
   19.795       78
   19.810       67
   19.825       78
   19.840       86
   19.855       98
   19.870      127
   19.885      152
   19.900      186
   19.915      201
   19.930      229
   19.945      309
   19.960      389
   19.975      441
   19.990      460
   20.005      442
   20.020      351
   20.035      272
   20.050      232
   20.065      264
   20.080      241
   20.095      276
   20.110      303
   20.125      247
   20.140      225
   20.155      181
   20.170      136
   20.185      130
   20.200       94
   20.215       86
   20.230       81
   20.245       75
   20.260       77
   20.275       95
   20.290       96
   20.305       94
   20.320       97
   20.335       79
   20.350       71
   20.365       78
   20.380       78
   20.395       68
   20.410       67
   20.425       78
   20.440       72
   20.455       67
   20.470       69
   20.485       58
   20.500       52
   20.515       57
   20.530       51
   20.545       44
   20.560       63
   20.575       56
   20.590       70
   20.605       80
   20.620       64
   20.635       77
   20.650       85
   20.665       87
   20.680       85
   20.695       70
   20.710       73
   20.725       62
   20.740       72
   20.755       69
   20.770       79
   20.785       96
   20.800       97
   20.815      107
   20.830      111
   20.845      110
   20.860      139
   20.875      137
   20.890      120
   20.905      114
   20.920      120
   20.935      143
   20.950      156
   20.965      150
   20.980      140
   20.995      116
   21.010       86
   21.025       81
   21.040       58
   21.055       59
   21.070       54
   21.085       63
   21.100       68
   21.115       66
   21.130       62
   21.145       54
   21.160       65
   21.175       51
   21.190       52
   21.205       60
   21.220       56
   21.235       56
   21.250       69
   21.265       71
   21.280       70
   21.295       68
   21.310       74
   21.325       92
   21.340       86
   21.355       98
   21.370       90
   21.385       84
   21.400       55
   21.415       57
   21.430       58
   21.445       63
   21.460       69
   21.475       66
   21.490       66
   21.505       62
   21.520       60
   21.535       45
   21.550       52
   21.565       58
   21.580       68
   21.595       76
   21.610       80
   21.625       98
   21.640      118
   21.655      112
   21.670      141
   21.685      161
   21.700      157
   21.715      154
   21.730      152
   21.745      124
   21.760      117
   21.775      118
   21.790      130
   21.805      175
   21.820      172
   21.835      223
   21.850      304
   21.865      422
   21.880      437
   21.895      385
   21.910      299
   21.925      204
   21.940      157
   21.955      115
   21.970      102
   21.985      108
   22.000       90
   22.015       84
   22.030       84
   22.045       80
   22.060       86
   22.075       71
   22.090       60
   22.105       58
   22.120       57
   22.135       55
   22.150       57
   22.165       61
   22.180       60
   22.195       59
   22.210       63
   22.225       54
   22.240       43
   22.255       58
   22.270       62
   22.285       51
   22.300       56
   22.315       67
   22.330       53
   22.345       50
   22.360       62
   22.375       69
   22.390       81
   22.405       92
   22.420       83
   22.435       75
   22.450       86
   22.465       87
   22.480       97
   22.495       99
   22.510       90
   22.525       79
   22.540       69
   22.555       59
   22.570       59
   22.585       54
   22.600       60
   22.615       75
   22.630       92
   22.645       91
   22.660       70
   22.675       91
   22.690      110
   22.705      109
   22.720      119
   22.735      128
   22.750      106
   22.765       95
   22.780       96
   22.795       95
   22.810       98
   22.825       97
   22.840      104
   22.855      119
   22.870      112
   22.885      139
   22.900      145
   22.915      150
   22.930      140
   22.945      118
   22.960      138
   22.975      113
   22.990      105
   23.005       90
   23.020       77
   23.035       71
   23.050       59
   23.065       62
   23.080       63
   23.095       65
   23.110       74
   23.125       81
   23.140       69
   23.155       67
   23.170       67
   23.185       84
   23.200       84
   23.215       73
   23.230       71
   23.245       85
   23.260       86
   23.275       94
   23.290      115
   23.305      109
   23.320       92
   23.335       75
   23.350       62
   23.365       58
   23.380       55
   23.395       42
   23.410       49
   23.425       55
   23.440       53
   23.455       59
   23.470       65
   23.485       54
   23.500       65
   23.515       63
   23.530       56
   23.545       68
   23.560       56
   23.575       59
   23.590       59
   23.605       45
   23.620       42
   23.635       49
   23.650       51
   23.665       62
   23.680       53
   23.695       51
   23.710       57
   23.725       59
   23.740       49
   23.755       62
   23.770       65
   23.785       83
   23.800       74
   23.815       75
   23.830       65
   23.845       64
   23.860       60
   23.875       59
   23.890       59
   23.905       56
   23.920       59
   23.935       62
   23.950       55
   23.965       58
   23.980       65
   23.995       64
   24.010       56
   24.025       73
   24.040       84
   24.055       88
   24.070      101
   24.085       93
   24.100       84
   24.115       64
   24.130       57
   24.145       58
   24.160       53
   24.175       53
   24.190       61
   24.205       62
   24.220       59
   24.235       56
   24.250       63
   24.265       61
   24.280       61
   24.295       68
   24.310       61
   24.325       65
   24.340       83
   24.355       59
   24.370       63
   24.385       60
   24.400       58
   24.415       67
   24.430       61
   24.445       43
   24.460       58
   24.475       45
   24.490       49
   24.505       45
   24.520       59
   24.535       55
   24.550       56
   24.565       50
   24.580       44
   24.595       59
   24.610       69
   24.625       55
   24.640       64
   24.655       73
   24.670       86
   24.685       85
   24.700       96
   24.715       83
   24.730       97
   24.745       78
   24.760       78
   24.775       75
   24.790       68
   24.805       75
   24.820       68
   24.835       62
   24.850       67
   24.865       55
   24.880       53
   24.895       50
   24.910       58
   24.925       49
   24.940       54
   24.955       65
   24.970       63
   24.985       73
   25.000       65
   25.015       78
   25.030       70
   25.045       90
   25.060      101
   25.075      122
   25.090       91
   25.105      100
   25.120       84
   25.135       77
   25.150       54
   25.165       72
   25.180       67
   25.195       64
   25.210       59
   25.225       72
   25.240       78
   25.255       81
   25.270       89
   25.285       93
   25.300       91
   25.315       88
   25.330       73
   25.345       67
   25.360       61
   25.375       69
   25.390       51
   25.405       57
   25.420       57
   25.435       63
   25.450       71
   25.465       77
   25.480       96
   25.495      109
   25.510       86
   25.525       79
   25.540       86
   25.555       82
   25.570       70
   25.585       73
   25.600       67
   25.615       72
   25.630       60
   25.645       61
   25.660       64
   25.675       79
   25.690       96
   25.705       99
   25.720      119
   25.735      111
   25.750      123
   25.765      135
   25.780      137
   25.795      117
   25.810       99
   25.825       83
   25.840       69
   25.855       67
   25.870       80
   25.885       68
   25.900       70
   25.915       86
   25.930      101
   25.945      110
   25.960      126
   25.975      126
   25.990      122
   26.005      121
   26.020       99
   26.035       81
   26.050       77
   26.065       70
   26.080       76
   26.095       70
   26.110       64
   26.125       70
   26.140       62
   26.155       61
   26.170       70
   26.185       72
   26.200       77
   26.215       81
   26.230       78
   26.245       84
   26.260      102
   26.275      102
   26.290       98
   26.305       89
   26.320       80
   26.335       86
   26.350       70
   26.365       66
   26.380       68
   26.395       63
   26.410       75
   26.425       78
   26.440       80
   26.455       74
   26.470       54
   26.485       63
   26.500       65
   26.515       52
   26.530       75
   26.545       68
   26.560       60
   26.575       54
   26.590       51
   26.605       52
   26.620       55
   26.635       56
   26.650       60
   26.665       48
   26.680       58
   26.695       68
   26.710       70
   26.725       84
   26.740       79
   26.755       92
   26.770       84
   26.785       90
   26.800       66
   26.815       72
   26.830       69
   26.845       65
   26.860       49
   26.875       54
   26.890       60
   26.905       74
   26.920       89
   26.935       80
   26.950       83
   26.965      103
   26.980      125
   26.995      119
   27.010      123
   27.025      130
   27.040      128
   27.055      112
   27.070      123
   27.085      110
   27.100       84
   27.115       79
   27.130       81
   27.145       74
   27.160       64
   27.175       57
   27.190       57
   27.205       60
   27.220       55
   27.235       57
   27.250       63
   27.265       60
   27.280       52
   27.295       61
   27.310       67
   27.325       69
   27.340       79
   27.355       75
   27.370       74
   27.385       77
   27.400       63
   27.415       75
   27.430       72
   27.445       81
   27.460       70
   27.475       85
   27.490       73
   27.505       85
   27.520       88
   27.535       89
   27.550       83
   27.565       80
   27.580       90
   27.595       79
   27.610      106
   27.625      112
   27.640      109
   27.655      146
   27.670      133
   27.685      161
   27.700      172
   27.715      156
   27.730      178
   27.745      140
   27.760      119
   27.775      115
   27.790       96
   27.805       92
   27.820       82
   27.835       81
   27.850       75
   27.865       70
   27.880       86
   27.895       82
   27.910       98
   27.925       98
   27.940       97
   27.955       96
   27.970      108
   27.985       96
   28.000      105
   28.015       90
   28.030       88
   28.045       82
   28.060       75
   28.075       76
   28.090       56
   28.105       61
   28.120       71
   28.135       78
   28.150       79
   28.165       74
   28.180       76
   28.195       66
   28.210       70
   28.225       79
   28.240       74
   28.255       71
   28.270       58
   28.285       73
   28.300       62
   28.315       81
   28.330       75
   28.345       81
   28.360       69
   28.375       75
   28.390       82
   28.405      102
   28.420       97
   28.435       94
   28.450       97
   28.465       91
   28.480       91
   28.495       87
   28.510      111
   28.525       86
   28.540       82
   28.555       76
   28.570       68
   28.585       69
   28.600       71
   28.615       59
   28.630       60
   28.645       56
   28.660       56
   28.675       59
   28.690       63
   28.705       86
   28.720       71
   28.735       69
   28.750       73
   28.765       74
   28.780       82
   28.795       63
   28.810       58
   28.825       66
   28.840       66
   28.855       63
   28.870       64
   28.885       65
   28.900       69
   28.915       83
   28.930       85
   28.945       75
   28.960       77
   28.975       84
   28.990       71
   29.005       83
   29.020       78
   29.035       82
   29.050       97
   29.065       91
   29.080       86
   29.095       86
   29.110       93
   29.125      108
   29.140       94
   29.155       97
   29.170       91
   29.185       86
   29.200       89
   29.215       98
   29.230       93
   29.245       77
   29.260       70
   29.275       78
   29.290       68
   29.305       64
   29.320       91
   29.335       88
   29.350       92
   29.365       78
   29.380       68
   29.395       60
   29.410       71
   29.425       64
   29.440       71
   29.455       74
   29.470       56
   29.485       66
   29.500       63
   29.515       64
   29.530       63
   29.545       70
   29.560       72
   29.575       65
   29.590       66
   29.605       65
   29.620       71
   29.635       71
   29.650       78
   29.665       83
   29.680       81
   29.695       81
   29.710       93
   29.725       77
   29.740       99
   29.755       95
   29.770      107
   29.785       91
   29.800      108
   29.815      107
   29.830       81
   29.845       82
   29.860       85
   29.875       90
   29.890       86
   29.905       80
   29.920       76
   29.935       72
   29.950       62
   29.965       73
   29.980       59
   29.995       64
   30.010       53
   30.025       70
   30.040       58
   30.055       66
   30.070       55
   30.085       59
   30.100       70
   30.115       59
   30.130       57
   30.145       65
   30.160       62
   30.175       49
   30.190       61
   30.205       66
   30.220       52
   30.235       64
   30.250       57
   30.265       59
   30.280       67
   30.295       61
   30.310       54
   30.325       60
   30.340       68
   30.355       60
   30.370       73
   30.385       71
   30.400       70
   30.415       57
   30.430       49
   30.445       54
   30.460       64
   30.475       63
   30.490       71
   30.505       68
   30.520       68
   30.535       65
   30.550       65
   30.565       70
   30.580       75
   30.595       84
   30.610       75
   30.625       83
   30.640       94
   30.655       92
   30.670       74
   30.685       89
   30.700       88
   30.715       84
   30.730       89
   30.745       87
   30.760       79
   30.775       85
   30.790       78
   30.805       84
   30.820       76
   30.835       73
   30.850       81
   30.865       70
   30.880       71
   30.895       65
   30.910       58
   30.925       53
   30.940       68
   30.955       71
   30.970       63
   30.985       73
   31.000       69
   31.015       78
   31.030       77
   31.045       76
   31.060       80
   31.075       78
   31.090       91
   31.105       96
   31.120       89
   31.135       79
   31.150       75
   31.165       90
   31.180       87
   31.195       85
   31.210       81
   31.225       63
   31.240       62
   31.255       55
   31.270       63
   31.285       76
   31.300       75
   31.315       63
   31.330       71
   31.345       77
   31.360       70
   31.375       77
   31.390       64
   31.405       73
   31.420       74
   31.435       77
   31.450       83
   31.465       70
   31.480       62
   31.495       58
   31.510       64
   31.525       81
   31.540       88
   31.555       90
   31.570       80
   31.585       65
   31.600       76
   31.615       74
   31.630       87
   31.645       89
   31.660       89
   31.675       92
   31.690       84
   31.705       77
   31.720       84
   31.735       88
   31.750       73
   31.765       81
   31.780       75
   31.795       76
   31.810       92
   31.825       97
   31.840       94
   31.855       84
   31.870       96
   31.885       80
   31.900       91
   31.915       80
   31.930       76
   31.945       78
   31.960       67
   31.975       86
   31.990       78
   32.005       88
   32.020       77
   32.035       88
   32.050       97
   32.065       83
   32.080       95
   32.095       76
   32.110       63
   32.125       65
   32.140       67
   32.155       69
   32.170       66
   32.185       73
   32.200       77
   32.215       78
   32.230       91
   32.245       83
   32.260       76
   32.275       71
   32.290       73
   32.305       82
   32.320       71
   32.335       60
   32.350       63
   32.365       76
   32.380       70
   32.395       66
   32.410       78
   32.425       68
   32.440       58
   32.455       66
   32.470       67
   32.485       57
   32.500       71
   32.515       69
   32.530       76
   32.545       57
   32.560       62
   32.575       65
   32.590       57
   32.605       63
   32.620       47
   32.635       55
   32.650       65
   32.665       54
   32.680       58
   32.695       54
   32.710       52
   32.725       54
   32.740       55
   32.755       56
   32.770       41
   32.785       45
   32.800       61
   32.815       50
   32.830       64
   32.845       59
   32.860       57
   32.875       52
   32.890       48
   32.905       48
   32.920       59
   32.935       58
   32.950       64
   32.965       58
   32.980       57
   32.995       73
   33.010       64
   33.025       81
   33.040       80
   33.055       83
   33.070       78
   33.085       69
   33.100       74
   33.115       75
   33.130       84
   33.145       61
   33.160       64
   33.175       62
   33.190       59
   33.205       62
   33.220       65
   33.235       58
   33.250       65
   33.265       80
   33.280       78
   33.295       62
   33.310       62
   33.325       59
   33.340       60
   33.355       65
   33.370       63
   33.385       66
   33.400       61
   33.415       68
   33.430       70
   33.445       67
   33.460       62
   33.475       61
   33.490       67
   33.505       69
   33.520       74
   33.535       80
   33.550       92
   33.565       87
   33.580       99
   33.595       93
   33.610      103
   33.625      106
   33.640      105
   33.655       90
   33.670       83
   33.685       74
   33.700       80
   33.715       86
   33.730       73
   33.745       68
   33.760       75
   33.775       81
   33.790       78
   33.805       79
   33.820       58
   33.835       78
   33.850       64
   33.865       66
   33.880       85
   33.895       95
   33.910       99
   33.925       81
   33.940       87
   33.955       95
   33.970       93
   33.985       76
   34.000       77
   34.015       84
   34.030       75
   34.045       71
   34.060       56
   34.075       55
   34.090       83
   34.105       85
   34.120       78
   34.135       75
   34.150       69
   34.165       68
   34.180       79
   34.195       83
   34.210       77
   34.225       68
   34.240       76
   34.255       63
   34.270       54
   34.285       60
   34.300       65
   34.315       61
   34.330       58
   34.345       61
   34.360       53
   34.375       54
   34.390       60
   34.405       54
   34.420       47
   34.435       45
   34.450       54
   34.465       54
   34.480       53
   34.495       50
   34.510       61
   34.525       55
   34.540       50
   34.555       67
   34.570       67
   34.585       53
   34.600       63
   34.615       71
   34.630       59
   34.645       75
   34.660       82
   34.675       72
   34.690       72
   34.705       67
   34.720       55
   34.735       42
   34.750       51
   34.765       48
   34.780       49
   34.795       53
   34.810       49
   34.825       61
   34.840       58
   34.855       60
   34.870       67
   34.885       69
   34.900       64
   34.915       59
   34.930       62
   34.945       52
   34.960       57
   34.975       63
   34.990       64
   35.005       53
   35.020       61
   35.035       59
   35.050       60
   35.065       65
   35.080       54
   35.095       53
   35.110       61
   35.125       56
   35.140       56
   35.155       58
   35.170       51
   35.185       60
   35.200       53
   35.215       65
   35.230       59
   35.245       53
   35.260       54
   35.275       53
   35.290       54
   35.305       64
   35.320       61
   35.335       63
   35.350       73
   35.365       70
   35.380       67
   35.395       61
   35.410       59
   35.425       68
   35.440       58
   35.455       69
   35.470       73
   35.485       79
   35.500       78
   35.515       66
   35.530       78
   35.545       74
   35.560       79
   35.575       69
   35.590       78
   35.605       76
   35.620       80
   35.635       78
   35.650       73
   35.665       72
   35.680       76
   35.695       71
   35.710       79
   35.725       82
   35.740       75
   35.755       55
   35.770       58
   35.785       67
   35.800       69
   35.815       66
   35.830       68
   35.845       62
   35.860       52
   35.875       60
   35.890       51
   35.905       57
   35.920       67
   35.935       59
   35.950       51
   35.965       64
   35.980       49
   35.995       53
   36.010       46
   36.025       54
   36.040       53
   36.055       54
   36.070       49
   36.085       58
   36.100       55
   36.115       57
   36.130       59
   36.145       49
   36.160       46
   36.175       47
   36.190       58
   36.205       52
   36.220       64
   36.235       56
   36.250       52
   36.265       57
   36.280       51
   36.295       63
   36.310       54
   36.325       50
   36.340       60
   36.355       56
   36.370       51
   36.385       63
   36.400       63
   36.415       57
   36.430       70
   36.445       65
   36.460       56
   36.475       54
   36.490       55
   36.505       50
   36.520       58
   36.535       59
   36.550       56
   36.565       51
   36.580       49
   36.595       52
   36.610       53
   36.625       48
   36.640       47
   36.655       55
   36.670       53
   36.685       48
   36.700       57
   36.715       53
   36.730       51
   36.745       51
   36.760       50
   36.775       54
   36.790       64
   36.805       47
   36.820       62
   36.835       56
   36.850       63
   36.865       53
   36.880       71
   36.895       65
   36.910       68
   36.925       63
   36.940       68
   36.955       64
   36.970       62
   36.985       53
   37.000       53
   37.015       61
   37.030       53
   37.045       58
   37.060       55
   37.075       52
   37.090       60
   37.105       61
   37.120       55
   37.135       58
   37.150       48
   37.165       47
   37.180       53
   37.195       49
   37.210       46
   37.225       52
   37.240       47
   37.255       71
   37.270       59
   37.285       55
   37.300       56
   37.315       48
   37.330       62
   37.345       66
   37.360       56
   37.375       84
   37.390       84
   37.405       74
   37.420       71
   37.435       74
   37.450       64
   37.465       75
   37.480       64
   37.495       47
   37.510       55
   37.525       38
   37.540       61
   37.555       46
   37.570       47
   37.585       54
   37.600       54
   37.615       55
   37.630       56
   37.645       62
   37.660       55
   37.675       60
   37.690       45
   37.705       50
   37.720       56
   37.735       61
   37.750       52
   37.765       54
   37.780       60
   37.795       56
   37.810       51
   37.825       48
   37.840       38
   37.855       40
   37.870       48
   37.885       42
   37.900       46
   37.915       45
   37.930       61
   37.945       60
   37.960       44
   37.975       50
   37.990       54
   38.005       50
   38.020       53
   38.035       63
   38.050       55
   38.065       66
   38.080       60
   38.095       65
   38.110       54
   38.125       50
   38.140       49
   38.155       55
   38.170       57
   38.185       57
   38.200       62
   38.215       63
   38.230       58
   38.245       54
   38.260       50
   38.275       48
   38.290       53
   38.305       58
   38.320       60
   38.335       51
   38.350       54
   38.365       56
   38.380       51
   38.395       43
   38.410       45
   38.425       45
   38.440       51
   38.455       67
   38.470       70
   38.485       68
   38.500       68
   38.515       60
   38.530       65
   38.545       65
   38.560       66
   38.575       50
   38.590       52
   38.605       48
   38.620       47
   38.635       43
   38.650       48
   38.665       48
   38.680       47
   38.695       42
   38.710       55
   38.725       54
   38.740       57
   38.755       53
   38.770       53
   38.785       56
   38.800       51
   38.815       43
   38.830       51
   38.845       53
   38.860       52
   38.875       51
   38.890       52
   38.905       51
   38.920       52
   38.935       40
   38.950       61
   38.965       61
   38.980       55
   38.995       56
   39.010       58
   39.025       58
   39.040       40
   39.055       59
   39.070       54
   39.085       61
   39.100       54
   39.115       55
   39.130       48
   39.145       52
   39.160       54
   39.175       52
   39.190       60
   39.205       33
   39.220       50
   39.235       59
   39.250       51
   39.265       47
   39.280       56
   39.295       54
   39.310       53
   39.325       45
   39.340       43
   39.355       54
   39.370       62
   39.385       47
   39.400       53
   39.415       42
   39.430       45
   39.445       48
   39.460       47
   39.475       50
   39.490       51
   39.505       51
   39.520       52
   39.535       52
   39.550       56
   39.565       46
   39.580       41
   39.595       39
   39.610       40
   39.625       48
   39.640       57
   39.655       50
   39.670       49
   39.685       49
   39.700       35
   39.715       47
   39.730       53
   39.745       49
   39.760       53
   39.775       49
   39.790       45
   39.805       64
   39.820       57
   39.835       60
   39.850       61
   39.865       60
   39.880       55
   39.895       54
   39.910       57
   39.925       61
   39.940       55
   39.955       50
   39.970       54
   39.985       55
   40.000       46
   40.015       45
   40.030       56
   40.045       59
   40.060       53
   40.075       57
   40.090       59
   40.105       55
   40.120       44
   40.135       51
   40.150       53
   40.165       47
   40.180       54
   40.195       56
   40.210       43
   40.225       47
   40.240       51
   40.255       40
   40.270       49
   40.285       45
   40.300       52
   40.315       62
   40.330       53
   40.345       53
   40.360       58
   40.375       59
   40.390       47
   40.405       58
   40.420       62
   40.435       50
   40.450       44
   40.465       41
   40.480       44
   40.495       53
   40.510       61
   40.525       57
   40.540       55
   40.555       57
   40.570       56
   40.585       54
   40.600       53
   40.615       48
   40.630       48
   40.645       57
   40.660       56
   40.675       59
   40.690       57
   40.705       50
   40.720       50
   40.735       54
   40.750       51
   40.765       59
   40.780       41
   40.795       41
   40.810       48
   40.825       43
   40.840       43
   40.855       54
   40.870       57
   40.885       56
   40.900       49
   40.915       60
   40.930       55
   40.945       38
   40.960       51
   40.975       59
   40.990       55
   41.005       47
   41.020       53
   41.035       60
   41.050       55
   41.065       47
   41.080       44
   41.095       48
   41.110       45
   41.125       49
   41.140       55
   41.155       47
   41.170       40
   41.185       48
   41.200       51
   41.215       53
   41.230       46
   41.245       40
   41.260       50
   41.275       48
   41.290       41
   41.305       39
   41.320       46
   41.335       43
   41.350       50
   41.365       52
   41.380       42
   41.395       51
   41.410       53
   41.425       50
   41.440       55
   41.455       49
   41.470       40
   41.485       33
   41.500       51
   41.515       52
   41.530       59
   41.545       50
   41.560       50
   41.575       41
   41.590       46
   41.605       45
   41.620       57
   41.635       46
   41.650       52
   41.665       49
   41.680       57
   41.695       48
   41.710       33
   41.725       43
   41.740       36
   41.755       47
   41.770       52
   41.785       50
   41.800       61
   41.815       47
   41.830       58
   41.845       42
   41.860       45
   41.875       45
   41.890       32
   41.905       41
   41.920       38
   41.935       47
   41.950       45
   41.965       46
   41.980       55
   41.995       56
   42.010       52
   42.025       60
   42.040       57
   42.055       59
   42.070       59
   42.085       47
   42.100       42
   42.115       42
   42.130       36
   42.145       45
   42.160       42
   42.175       52
   42.190       39
   42.205       43
   42.220       44
   42.235       40
   42.250       56
   42.265       62
   42.280       43
   42.295       47
   42.310       53
   42.325       56
   42.340       45
   42.355       40
   42.370       46
   42.385       44
   42.400       52
   42.415       45
   42.430       45
   42.445       43
   42.460       35
   42.475       45
   42.490       54
   42.505       46
   42.520       49
   42.535       50
   42.550       62
   42.565       54
   42.580       49
   42.595       55
   42.610       64
   42.625       52
   42.640       47
   42.655       47
   42.670       44
   42.685       60
   42.700       40
   42.715       42
   42.730       36
   42.745       42
   42.760       39
   42.775       42
   42.790       48
   42.805       41
   42.820       53
   42.835       45
   42.850       53
   42.865       49
   42.880       45
   42.895       43
   42.910       42
   42.925       46
   42.940       41
   42.955       51
   42.970       44
   42.985       46
   43.000       46
   43.015       42
   43.030       53
   43.045       51
   43.060       46
   43.075       49
   43.090       38
   43.105       45
   43.120       49
   43.135       43
   43.150       45
   43.165       49
   43.180       51
   43.195       49
   43.210       51
   43.225       46
   43.240       38
   43.255       39
   43.270       38
   43.285       45
   43.300       49
   43.315       49
   43.330       53
   43.345       50
   43.360       44
   43.375       45
   43.390       39
   43.405       34
   43.420       45
   43.435       47
   43.450       38
   43.465       49
   43.480       49
   43.495       40
   43.510       41
   43.525       43
   43.540       42
   43.555       53
   43.570       50
   43.585       46
   43.600       45
   43.615       50
   43.630       48
   43.645       46
   43.660       49
   43.675       51
   43.690       51
   43.705       53
   43.720       45
   43.735       38
   43.750       41
   43.765       47
   43.780       42
   43.795       37
   43.810       52
   43.825       41
   43.840       40
   43.855       38
   43.870       40
   43.885       39
   43.900       42
   43.915       50
   43.930       47
   43.945       42
   43.960       50
   43.975       45
   43.990       39
   44.005       37
   44.020       40
   44.035       43
   44.050       46
   44.065       50
   44.080       49
   44.095       41
   44.110       39
   44.125       35
   44.140       42
   44.155       50
   44.170       48
   44.185       55
   44.200       39
   44.215       51
   44.230       53
   44.245       57
   44.260       51
   44.275       48
   44.290       46
   44.305       43
   44.320       43
   44.335       48
   44.350       55
   44.365       47
   44.380       42
   44.395       54
   44.410       51
   44.425       53
   44.440       60
   44.455       54
   44.470       57
   44.485       49
   44.500       42
   44.515       49
   44.530       51
   44.545       46
   44.560       35
   44.575       42
   44.590       47
   44.605       45
   44.620       49
   44.635       54
   44.650       42
   44.665       44
   44.680       48
   44.695       45
   44.710       39
   44.725       41
   44.740       47
   44.755       43
   44.770       38
   44.785       38
   44.800       43
   44.815       40
   44.830       55
   44.845       45
   44.860       39
   44.875       59
   44.890       56
   44.905       50
   44.920       57
   44.935       44
   44.950       58
   44.965       47
   44.980       54
   44.995       60
   45.010       49
   45.025       52
   45.040       45
   45.055       51
   45.070       57
   45.085       48
   45.100       51
   45.115       53
   45.130       47
   45.145       55
   45.160       59
   45.175       58
   45.190       61
   45.205       42
   45.220       64
   45.235       57
   45.250       44
   45.265       49
   45.280       56
   45.295       54
   45.310       51
   45.325       47
   45.340       42
   45.355       59
   45.370       51
   45.385       49
   45.400       42
   45.415       44
   45.430       42
   45.445       39
   45.460       42
   45.475       44
   45.490       46
   45.505       42
   45.520       46
   45.535       52
   45.550       52
   45.565       49
   45.580       43
   45.595       35
   45.610       43
   45.625       40
   45.640       49
   45.655       38
   45.670       40
   45.685       38
   45.700       49
   45.715       40
   45.730       51
   45.745       41
   45.760       46
   45.775       43
   45.790       41
   45.805       47
   45.820       41
   45.835       49
   45.850       40
   45.865       40
   45.880       36
   45.895       38
   45.910       41
   45.925       39
   45.940       38
   45.955       34
   45.970       47
   45.985       46
