    4.000       51
    4.015       50
    4.030       49
    4.045       44
    4.060       47
    4.075       43
    4.090       51
    4.105       47
    4.120       42
    4.135       42
    4.150       49
    4.165       40
    4.180       43
    4.195       42
    4.210       48
    4.225       41
    4.240       42
    4.255       52
    4.270       47
    4.285       55
    4.300       51
    4.315       43
    4.330       51
    4.345       51
    4.360       50
    4.375       52
    4.390       41
    4.405       41
    4.420       47
    4.435       41
    4.450       45
    4.465       38
    4.480       41
    4.495       49
    4.510       53
    4.525       46
    4.540       51
    4.555       47
    4.570       50
    4.585       48
    4.600       41
    4.615       38
    4.630       45
    4.645       49
    4.660       45
    4.675       37
    4.690       43
    4.705       42
    4.720       47
    4.735       51
    4.750       59
    4.765       45
    4.780       45
    4.795       33
    4.810       52
    4.825       49
    4.840       47
    4.855       48
    4.870       46
    4.885       52
    4.900       45
    4.915       41
    4.930       39
    4.945       39
    4.960       34
    4.975       43
    4.990       49
    5.005       52
    5.020       45
    5.035       49
    5.050       43
    5.065       48
    5.080       45
    5.095       38
    5.110       46
    5.125       46
    5.140       49
    5.155       46
    5.170       41
    5.185       39
    5.200       37
    5.215       44
    5.230       42
    5.245       40
    5.260       44
    5.275       46
    5.290       38
    5.305       37
    5.320       46
    5.335       49
    5.350       50
    5.365       48
    5.380       55
    5.395       48
    5.410       34
    5.425       43
    5.440       40
    5.455       45
    5.470       41
    5.485       42
    5.500       39
    5.515       40
    5.530       36
    5.545       39
    5.560       44
    5.575       44
    5.590       37
    5.605       34
    5.620       49
    5.635       47
    5.650       49
    5.665       38
    5.680       40
    5.695       47
    5.710       41
    5.725       39
    5.740       37
    5.755       45
    5.770       42
    5.785       42
    5.800       48
    5.815       44
    5.830       41
    5.845       43
    5.860       49
    5.875       41
    5.890       37
    5.905       39
    5.920       53
    5.935       58
    5.950       40
    5.965       34
    5.980       34
    5.995       39
    6.010       48
    6.025       43
    6.040       37
    6.055       38
    6.070       39
    6.085       42
    6.100       46
    6.115       44
    6.130       45
    6.145       38
    6.160       42
    6.175       47
    6.190       52
    6.205       50
    6.220       54
    6.235       46
    6.250       51
    6.265       58
    6.280       65
    6.295       69
    6.310       61
    6.325       65
    6.340       64
    6.355       84
    6.370       69
    6.385       68
    6.400       82
    6.415       99
    6.430      102
    6.445       98
    6.460      121
    6.475      103
    6.490      132
    6.505      140
    6.520      133
    6.535      152
    6.550      181
    6.565      180
    6.580      230
    6.595      236
    6.610      291
    6.625      342
    6.640      335
    6.655      314
    6.670      327
    6.685      316
    6.700      231
    6.715      134
    6.730       87
    6.745       50
    6.760       50
    6.775       47
    6.790       30
    6.805       37
    6.820       44
    6.835       51
    6.850       50
    6.865       37
    6.880       41
    6.895       51
    6.910       45
    6.925       51
    6.940       43
    6.955       48
    6.970       46
    6.985       42
    7.000       47
    7.015       51
    7.030       51
    7.045       59
    7.060       52
    7.075       50
    7.090       62
    7.105       54
    7.120       63
    7.135       57
    7.150       77
    7.165       76
    7.180       77
    7.195       91
    7.210       98
    7.225       83
    7.240       66
    7.255       55
    7.270       53
    7.285       38
    7.300       43
    7.315       39
    7.330       35
    7.345       46
    7.360       38
    7.375       39
    7.390       43
    7.405       46
    7.420       27
    7.435       34
    7.450       37
    7.465       26
    7.480       37
    7.495       36
    7.510       41
    7.525       42
    7.540       36
    7.555       40
    7.570       48
    7.585       46
    7.600       47
    7.615       37
    7.630       40
    7.645       45
    7.660       49
    7.675       39
    7.690       33
    7.705       47
    7.720       35
    7.735       35
    7.750       41
    7.765       39
    7.780       39
    7.795       35
    7.810       40
    7.825       36
    7.840       41
    7.855       45
    7.870       42
    7.885       41
    7.900       36
    7.915       39
    7.930       37
    7.945       38
    7.960       42
    7.975       43
    7.990       46
    8.005       42
    8.020       35
    8.035       34
    8.050       41
    8.065       39
    8.080       36
    8.095       37
    8.110       36
    8.125       35
    8.140       35
    8.155       45
    8.170       47
    8.185       35
    8.200       35
    8.215       42
    8.230       42
    8.245       32
    8.260       49
    8.275       47
    8.290       45
    8.305       55
    8.320       43
    8.335       36
    8.350       38
    8.365       45
    8.380       40
    8.395       47
    8.410       46
    8.425       45
    8.440       53
    8.455       48
    8.470       51
    8.485       35
    8.500       38
    8.515       40
    8.530       40
    8.545       42
    8.560       53
    8.575       49
    8.590       55
    8.605       51
    8.620       47
    8.635       41
    8.650       45
    8.665       44
    8.680       32
    8.695       29
    8.710       41
    8.725       32
    8.740       43
    8.755       45
    8.770       38
    8.785       46
    8.800       47
    8.815       40
    8.830       46
    8.845       47
    8.860       38
    8.875       42
    8.890       47
    8.905       45
    8.920       40
    8.935       39
    8.950       37
    8.965       42
    8.980       36
    8.995       33
    9.010       40
    9.025       43
    9.040       43
    9.055       42
    9.070       43
    9.085       52
    9.100       50
    9.115       37
    9.130       47
    9.145       44
    9.160       44
    9.175       37
    9.190       42
    9.205       41
    9.220       43
    9.235       49
    9.250       42
    9.265       48
    9.280       42
    9.295       43
    9.310       36
    9.325       51
    9.340       54
    9.355       42
    9.370       37
    9.385       47
    9.400       54
    9.415       51
    9.430       48
    9.445       52
    9.460       43
    9.475       44
    9.490       37
    9.505       31
    9.520       45
    9.535       43
    9.550       41
    9.565       51
    9.580       49
    9.595       44
    9.610       39
    9.625       48
    9.640       46
    9.655       44
    9.670       30
    9.685       45
    9.700       44
    9.715       55
    9.730       46
    9.745       51
    9.760       36
    9.775       44
    9.790       40
    9.805       30
    9.820       40
    9.835       59
    9.850       53
    9.865       51
    9.880       48
    9.895       49
    9.910       44
    9.925       41
    9.940       41
    9.955       39
    9.970       36
    9.985       45
   10.000       52
   10.015       43
   10.030       48
   10.045       43
   10.060       38
   10.075       43
   10.090       44
   10.105       51
   10.120       36
   10.135       35
   10.150       48
   10.165       47
   10.180       44
   10.195       54
   10.210       52
   10.225       48
   10.240       49
   10.255       46
   10.270       50
   10.285       51
   10.300       46
   10.315       48
   10.330       45
   10.345       36
   10.360       59
   10.375       58
   10.390       56
   10.405       53
   10.420       62
   10.435       61
   10.450       68
   10.465       69
   10.480       73
   10.495       76
   10.510       81
   10.525       72
   10.540       60
   10.555       49
   10.570       51
   10.585       66
   10.600       51
   10.615       34
   10.630       55
   10.645       48
   10.660       55
   10.675       61
   10.690       60
   10.705       68
   10.720       76
   10.735       91
   10.750       93
   10.765       90
   10.780       93
   10.795      129
   10.810      155
   10.825      149
   10.840      147
   10.855      153
   10.870      196
   10.885      255
   10.900      256
   10.915      189
   10.930      159
   10.945      100
   10.960       71
   10.975       54
   10.990       45
   11.005       52
   11.020       49
   11.035       41
   11.050       49
   11.065       55
   11.080       59
   11.095       51
   11.110       56
   11.125       56
   11.140       55
   11.155       57
   11.170       70
   11.185       54
   11.200       54
   11.215       59
   11.230       62
   11.245       71
   11.260       70
   11.275       74
   11.290       64
   11.305       61
   11.320       52
   11.335       51
   11.350       51
   11.365       52
   11.380       46
   11.395       46
   11.410       67
   11.425       63
   11.440       49
   11.455       70
   11.470       69
   11.485       63
   11.500       61
   11.515       48
   11.530       45
   11.545       42
   11.560       42
   11.575       40
   11.590       46
   11.605       41
   11.620       50
   11.635       41
   11.650       42
   11.665       38
   11.680       50
   11.695       53
   11.710       58
   11.725       51
   11.740       58
   11.755       65
   11.770       52
   11.785       60
   11.800       64
   11.815       72
   11.830       70
   11.845       69
   11.860       74
   11.875       67
   11.890       67
   11.905       73
   11.920       78
   11.935       59
   11.950       60
   11.965       56
   11.980       58
   11.995       74
   12.010       62
   12.025       60
   12.040       62
   12.055       59
   12.070       56
   12.085       53
   12.100       59
   12.115       56
   12.130       49
   12.145       37
   12.160       50
   12.175       51
   12.190       48
   12.205       39
   12.220       47
   12.235       48
   12.250       45
   12.265       52
   12.280       50
   12.295       46
   12.310       40
   12.325       44
   12.340       42
   12.355       49
   12.370       51
   12.385       48
   12.400       50
   12.415       46
   12.430       46
   12.445       44
   12.460       55
   12.475       50
   12.490       54
   12.505       46
   12.520       56
   12.535       63
   12.550       59
   12.565       54
   12.580       73
   12.595       96
   12.610      101
   12.625      115
   12.640      121
   12.655      128
   12.670      143
   12.685      187
   12.700      223
   12.715      268
   12.730      245
   12.745      226
   12.760      185
   12.775      176
   12.790      178
   12.805      166
   12.820      145
   12.835       99
   12.850       65
   12.865       55
   12.880       59
   12.895       59
   12.910       52
   12.925       50
   12.940       57
   12.955       56
   12.970       70
   12.985       77
   13.000       89
   13.015      102
   13.030      120
   13.045      128
   13.060      154
   13.075      180
   13.090      223
   13.105      219
   13.120      197
   13.135      167
   13.150      155
   13.165      145
   13.180      182
   13.195      222
   13.210      245
   13.225      282
   13.240      322
   13.255      350
   13.270      448
   13.285      559
   13.300      535
   13.315      442
   13.330      422
   13.345      442
   13.360      542
   13.375      741
   13.390      899
   13.405      910
   13.420      748
   13.435      449
   13.450      239
   13.465      136
   13.480      106
   13.495      110
   13.510      110
   13.525      108
   13.540      122
   13.555      131
   13.570      143
   13.585      144
   13.600      168
   13.615      228
   13.630      285
   13.645      298
   13.660      295
   13.675      273
   13.690      212
   13.705      161
   13.720      107
   13.735       69
   13.750       64
   13.765       54
   13.780       49
   13.795       63
   13.810       56
   13.825       63
   13.840       66
   13.855       64
   13.870       61
   13.885       72
   13.900       86
   13.915       72
   13.930       62
   13.945       68
   13.960       57
   13.975       55
   13.990       56
   14.005       46
   14.020       51
   14.035       58
   14.050       42
   14.065       45
   14.080       48
   14.095       47
   14.110       43
   14.125       45
   14.140       50
   14.155       62
   14.170       57
   14.185       54
   14.200       68
   14.215       70
   14.230       75
   14.245       80
   14.260       80
   14.275       85
   14.290      102
   14.305      121
   14.320      158
   14.335      191
   14.350      222
   14.365      208
   14.380      212
   14.395      199
   14.410      158
   14.425      164
   14.440      152
   14.455      144
   14.470      169
   14.485      162
   14.500      135
   14.515      136
   14.530      149
   14.545      175
   14.560      202
   14.575      258
   14.590      305
   14.605      278
   14.620      217
   14.635      132
   14.650       85
   14.665       70
   14.680       68
   14.695       56
   14.710       63
   14.725       44
   14.740       52
   14.755       50
   14.770       60
   14.785       49
   14.800       50
   14.815       50
   14.830       62
   14.845       59
   14.860       56
   14.875       49
   14.890       62
   14.905       54
   14.920       58
   14.935       64
   14.950       66
   14.965       73
   14.980       82
   14.995       92
   15.010      107
   15.025      137
   15.040      165
   15.055      210
   15.070      244
   15.085      280
   15.100      325
   15.115      365
   15.130      453
   15.145      524
   15.160      626
   15.175      751
   15.190      704
   15.205      563
   15.220      352
   15.235      202
   15.250      140
   15.265      121
   15.280      136
   15.295      160
   15.310      138
   15.325      125
   15.340      155
   15.355      159
   15.370      174
   15.385      182
   15.400      190
   15.415      200
   15.430      197
   15.445      172
   15.460      152
   15.475      147
   15.490      127
   15.505      115
   15.520      107
   15.535      107
   15.550      121
   15.565      140
   15.580      145
   15.595      185
   15.610      244
   15.625      264
   15.640      301
   15.655      327
   15.670      386
   15.685      339
   15.700      287
   15.715      229
   15.730      176
   15.745      145
   15.760      152
   15.775      185
   15.790      178
   15.805      163
   15.820      166
   15.835      183
   15.850      211
   15.865      236
   15.880      226
   15.895      214
   15.910      148
   15.925      100
   15.940       86
   15.955       66
   15.970       54
   15.985       59
   16.000       53
   16.015       61
   16.030       60
   16.045       73
   16.060       74
   16.075       80
   16.090       82
   16.105      111
   16.120      109
   16.135      139
   16.150      149
   16.165      165
   16.180      234
   16.195      252
   16.210      236
   16.225      231
   16.240      283
   16.255      277
   16.270      209
   16.285      143
   16.300      100
   16.315       89
   16.330       82
   16.345       95
   16.360      113
   16.375      128
   16.390      133
   16.405      131
   16.420      143
   16.435      165
   16.450      175
   16.465      222
   16.480      264
   16.495      304
   16.510      430
   16.525      491
   16.540      449
   16.555      349
   16.570      306
   16.585      266
   16.600      272
   16.615      293
   16.630      319
   16.645      307
   16.660      294
   16.675      246
   16.690      250
   16.705      228
   16.720      239
   16.735      208
   16.750      185
   16.765      223
   16.780      245
   16.795      291
   16.810      288
   16.825      280
   16.840      278
   16.855      311
   16.870      292
   16.885      243
   16.900      236
   16.915      218
   16.930      157
   16.945      109
   16.960      102
   16.975       92
   16.990       99
   17.005       90
   17.020      100
   17.035      110
   17.050      130
   17.065      155
   17.080      178
   17.095      236
   17.110      276
   17.125      252
   17.140      205
   17.155      203
   17.170      175
   17.185      143
   17.200      159
   17.215      150
   17.230      196
   17.245      233
   17.260      310
   17.275      368
   17.290      360
   17.305      388
   17.320      380
   17.335      355
   17.350      274
   17.365      194
   17.380      144
   17.395      122
   17.410      117
   17.425      111
   17.440      108
   17.455      105
   17.470      102
   17.485      111
   17.500      108
   17.515      115
   17.530      113
   17.545      131
   17.560      161
   17.575      214
   17.590      217
   17.605      201
   17.620      147
   17.635      129
   17.650       90
   17.665       79
   17.680       69
   17.695       79
   17.710       86
   17.725      101
   17.740      116
   17.755      126
   17.770      123
   17.785      103
   17.800       92
   17.815       84
   17.830       97
   17.845      103
   17.860      117
   17.875       92
   17.890       79
   17.905       96
   17.920       90
   17.935       83
   17.950       76
   17.965       63
   17.980       59
   17.995       61
   18.010       66
   18.025       73
   18.040       48
   18.055       56
   18.070       54
   18.085       62
   18.100       48
   18.115       44
   18.130       58
   18.145       54
   18.160       54
   18.175       52
   18.190       53
   18.205       60
   18.220       64
   18.235       72
   18.250       62
   18.265       85
   18.280       82
   18.295       94
   18.310      101
   18.325      121
   18.340      143
   18.355      163
   18.370      187
   18.385      234
   18.400      226
   18.415      219
   18.430      172
   18.445      136
   18.460      121
   18.475       88
   18.490       69
   18.505       58
   18.520       64
   18.535       58
   18.550       65
   18.565       71
   18.580       72
   18.595       69
   18.610       68
   18.625      100
   18.640      112
   18.655      119
   18.670      126
   18.685      144
   18.700      112
   18.715      113
   18.730      125
   18.745      127
   18.760      132
   18.775      151
   18.790      149
   18.805      108
   18.820       97
   18.835       80
   18.850       78
   18.865       73
   18.880       64
   18.895       71
   18.910       62
   18.925       79
   18.940       69
   18.955       78
   18.970       97
   18.985       95
   19.000      104
   19.015       76
   19.030       80
   19.045       85
   19.060       91
   19.075       86
   19.090      104
   19.105       98
   19.120       68
   19.135       65
   19.150       68
   19.165       64
   19.180       79
   19.195       64
   19.210       61
   19.225       62
   19.240       60
   19.255       39
   19.270       48
   19.285       46
   19.300       50
   19.315       50
   19.330       55
   19.345       55
   19.360       57
   19.375       55
   19.390       43
   19.405       49
   19.420       55
   19.435       59
   19.450       57
   19.465       55
   19.480       71
   19.495       71
   19.510       77
   19.525       86
   19.540       82
   19.555       83
   19.570       98
   19.585      108
   19.600      115
   19.615       97
   19.630       97
   19.645       99
   19.660       89
   19.675      125
   19.690      169
   19.705      166
   19.720      177
   19.735      158
   19.750      143
   19.765      124
   19.780      105
   19.795       89
   19.810       67
   19.825       74
   19.840       95
   19.855       93
   19.870       78
   19.885       91
   19.900      114
   19.915      157
   19.930      205
   19.945      244
   19.960      292
   19.975      378
   19.990      462
   20.005      530
   20.020      477
   20.035      377
   20.050      308
   20.065      250
   20.080      251
   20.095      266
   20.110      287
   20.125      273
   20.140      261
   20.155      233
   20.170      211
   20.185      145
   20.200      115
   20.215       99
   20.230       82
   20.245       79
   20.260       85
   20.275       81
   20.290       70
   20.305       80
   20.320       94
   20.335       90
   20.350       72
   20.365       63
   20.380       64
   20.395       57
   20.410       60
   20.425       58
   20.440       66
   20.455       78
   20.470       65
   20.485       65
   20.500       58
   20.515       56
   20.530       54
   20.545       53
   20.560       59
   20.575       76
   20.590       58
   20.605       62
   20.620       64
   20.635       73
   20.650       81
   20.665       78
   20.680       88
   20.695       71
   20.710       61
   20.725       60
   20.740       67
   20.755       70
   20.770       69
   20.785       86
   20.800       88
   20.815      115
   20.830      109
   20.845      120
   20.860      124
   20.875      128
   20.890      140
   20.905      130
   20.920      137
   20.935      145
   20.950      152
   20.965      141
   20.980      154
   20.995      151
   21.010      127
   21.025       93
   21.040       84
   21.055       63
   21.070       57
   21.085       64
   21.100       73
   21.115       56
   21.130       61
   21.145       79
   21.160       61
   21.175       54
   21.190       55
   21.205       55
   21.220       60
   21.235       65
   21.250       66
   21.265       75
   21.280       71
   21.295       77
   21.310       65
   21.325       76
   21.340       98
   21.355       95
   21.370       79
   21.385       76
   21.400       64
   21.415       69
   21.430       63
   21.445       73
   21.460       67
   21.475       66
   21.490       64
   21.505       54
   21.520       49
   21.535       62
   21.550       61
   21.565       52
   21.580       46
   21.595       73
   21.610       73
   21.625       80
   21.640       91
   21.655      102
   21.670      115
   21.685      133
   21.700      156
   21.715      161
   21.730      181
   21.745      143
   21.760      119
   21.775      127
   21.790      101
   21.805      125
   21.820      153
   21.835      167
   21.850      205
   21.865      276
   21.880      388
   21.895      490
   21.910      438
   21.925      346
   21.940      253
   21.955      188
   21.970      115
   21.985      118
   22.000       99
   22.015      105
   22.030       93
   22.045       78
   22.060       83
   22.075       86
   22.090       64
   22.105       74
   22.120       64
   22.135       57
   22.150       41
   22.165       44
   22.180       56
   22.195       48
   22.210       46
   22.225       49
   22.240       46
   22.255       42
   22.270       46
   22.285       55
   22.300       52
   22.315       48
   22.330       52
   22.345       52
   22.360       60
   22.375       59
   22.390       78
   22.405       96
   22.420       96
   22.435       83
   22.450       73
   22.465       73
   22.480       95
   22.495       99
   22.510      100
   22.525       80
   22.540       76
   22.555       59
   22.570       48
   22.585       60
   22.600       65
   22.615       66
   22.630       72
   22.645       93
   22.660       98
   22.675       82
   22.690      100
   22.705       95
   22.720      115
   22.735      131
   22.750      122
   22.765      127
   22.780      107
   22.795       97
   22.810       77
   22.825       87
   22.840       97
   22.855       94
   22.870      112
   22.885      131
   22.900      139
   22.915      140
   22.930      153
   22.945      133
   22.960      138
   22.975      123
   22.990      117
   23.005      108
   23.020       93
   23.035       68
   23.050       61
   23.065       56
   23.080       57
   23.095       50
   23.110       57
   23.125       53
   23.140       67
   23.155       75
   23.170       62
   23.185       66
   23.200       76
   23.215       77
   23.230       78
   23.245       96
   23.260       88
   23.275       91
   23.290       97
   23.305      111
   23.320      102
   23.335       95
   23.350       74
   23.365       62
   23.380       70
   23.395       55
   23.410       51
   23.425       46
   23.440       58
   23.455       61
   23.470       60
   23.485       48
   23.500       48
   23.515       46
   23.530       67
   23.545       44
   23.560       47
   23.575       54
   23.590       46
   23.605       54
   23.620       45
   23.635       57
   23.650       64
   23.665       59
   23.680       59
   23.695       51
   23.710       49
   23.725       57
   23.740       67
   23.755       70
   23.770       60
   23.785       75
   23.800       73
   23.815       82
   23.830       69
   23.845       67
   23.860       55
   23.875       66
   23.890       56
   23.905       59
   23.920       60
   23.935       55
   23.950       67
   23.965       63
   23.980       65
   23.995       45
   24.010       60
   24.025       67
   24.040       77
   24.055       69
   24.070       76
   24.085       93
   24.100      101
   24.115       88
   24.130       78
   24.145       50
   24.160       57
   24.175       48
   24.190       58
   24.205       59
   24.220       56
   24.235       57
   24.250       61
   24.265       67
   24.280       53
   24.295       59
   24.310       62
   24.325       67
   24.340       82
   24.355       92
   24.370      107
   24.385       78
   24.400       50
   24.415       49
   24.430       51
   24.445       48
   24.460       44
   24.475       44
   24.490       53
   24.505       58
   24.520       52
   24.535       46
   24.550       50
   24.565       38
   24.580       47
   24.595       60
   24.610       57
   24.625       51
   24.640       56
   24.655       65
   24.670       71
   24.685       76
   24.700       97
   24.715       91
   24.730       97
   24.745       97
   24.760       89
   24.775       75
   24.790       75
   24.805       65
   24.820       62
   24.835       70
   24.850       60
   24.865       68
   24.880       70
   24.895       60
   24.910       57
   24.925       54
   24.940       57
   24.955       54
   24.970       52
   24.985       54
   25.000       44
   25.015       67
   25.030       68
   25.045       78
   25.060       92
   25.075      106
   25.090      125
   25.105       96
   25.120       99
   25.135       77
   25.150       64
   25.165       64
   25.180       58
   25.195       60
   25.210       63
   25.225       58
   25.240       57
   25.255       63
   25.270       61
   25.285       72
   25.300       73
   25.315       89
   25.330       71
   25.345       58
   25.360       53
   25.375       57
   25.390       62
   25.405       45
   25.420       55
   25.435       61
   25.450       62
   25.465       73
   25.480       77
   25.495       94
   25.510      112
   25.525      106
   25.540       98
   25.555       81
   25.570       79
   25.585       67
   25.600       72
   25.615       74
   25.630       63
   25.645       61
   25.660       60
   25.675       70
   25.690       79
   25.705       77
   25.720       91
   25.735       98
   25.750      109
   25.765      146
   25.780      149
   25.795      146
   25.810      131
   25.825      104
   25.840       88
   25.855       97
   25.870       75
   25.885       68
   25.900       75
   25.915      102
   25.930      101
   25.945      102
   25.960      118
   25.975      124
   25.990      116
   26.005      138
   26.020      117
   26.035       87
   26.050       83
   26.065       72
   26.080       67
   26.095       63
   26.110       72
   26.125       74
   26.140       66
   26.155       80
   26.170       72
   26.185       71
   26.200       62
   26.215       68
   26.230       70
   26.245       84
   26.260       92
   26.275      106
   26.290      116
   26.305      125
   26.320       97
   26.335       79
   26.350       76
   26.365       72
   26.380       69
   26.395       69
   26.410       80
   26.425       66
   26.440       68
   26.455       63
   26.470       67
   26.485       84
   26.500       76
   26.515       67
   26.530       60
   26.545       53
   26.560       57
   26.575       52
   26.590       54
   26.605       51
   26.620       51
   26.635       54
   26.650       49
   26.665       51
   26.680       57
   26.695       54
   26.710       50
   26.725       58
   26.740       66
   26.755       75
   26.770       77
   26.785       74
   26.800       72
   26.815       64
   26.830       58
   26.845       55
   26.860       57
   26.875       49
   26.890       47
   26.905       73
   26.920       56
   26.935       73
   26.950       90
   26.965      100
   26.980      128
   26.995      139
   27.010      136
   27.025      131
   27.040      122
   27.055      100
   27.070      137
   27.085      136
   27.100      135
   27.115      119
   27.130      108
   27.145       92
   27.160       90
   27.175       85
   27.190       88
   27.205       78
   27.220       72
   27.235       62
   27.250       60
   27.265       68
   27.280       69
   27.295       63
   27.310       62
   27.325       61
   27.340       79
   27.355       71
   27.370       75
   27.385       75
   27.400       79
   27.415       63
   27.430       70
   27.445       62
   27.460       65
   27.475       83
   27.490       69
   27.505       71
   27.520       92
   27.535       89
   27.550       92
   27.565       84
   27.580       83
   27.595       78
   27.610       96
   27.625      104
   27.640      111
   27.655      132
   27.670      131
   27.685      150
   27.700      169
   27.715      172
   27.730      154
   27.745      168
   27.760      169
   27.775      145
   27.790      112
   27.805      102
   27.820       86
   27.835       80
   27.850       67
   27.865       82
   27.880       80
   27.895       62
   27.910       67
   27.925       92
   27.940       91
   27.955       95
   27.970       90
   27.985      106
   28.000      132
   28.015      110
   28.030       88
   28.045       99
   28.060       82
   28.075       75
   28.090       90
   28.105       83
   28.120       75
   28.135       72
   28.150       74
   28.165       80
   28.180       63
   28.195       72
   28.210       82
   28.225       72
   28.240       62
   28.255       72
   28.270       63
   28.285       71
   28.300       74
   28.315       66
   28.330       78
   28.345       89
   28.360       81
   28.375       93
   28.390       86
   28.405      102
   28.420       89
   28.435       84
   28.450      103
   28.465       96
   28.480      104
   28.495       89
   28.510       96
   28.525      103
   28.540      108
   28.555      101
   28.570       73
   28.585       77
   28.600       75
   28.615       52
   28.630       57
   28.645       67
   28.660       55
   28.675       60
   28.690       52
   28.705       58
   28.720       54
   28.735       60
   28.750       69
   28.765       74
   28.780       76
   28.795       74
   28.810       79
   28.825       78
   28.840       75
   28.855       70
   28.870       69
   28.885       80
   28.900       62
   28.915       76
   28.930       73
   28.945       70
   28.960       66
   28.975       72
   28.990       84
   29.005      104
   29.020       98
   29.035       90
   29.050       92
   29.065       82
   29.080       79
   29.095       73
   29.110       93
   29.125       96
   29.140       94
   29.155       98
   29.170       98
   29.185       98
   29.200       95
   29.215       96
   29.230       89
   29.245       82
   29.260       84
   29.275       74
   29.290       67
   29.305       73
   29.320       84
   29.335       76
   29.350       77
   29.365       95
   29.380       77
   29.395       69
   29.410       69
   29.425       71
   29.440       64
   29.455       71
   29.470       53
   29.485       56
   29.500       74
   29.515       67
   29.530       54
   29.545       55
   29.560       58
   29.575       77
   29.590       60
   29.605       70
   29.620       73
   29.635       79
   29.650       70
   29.665       78
   29.680       91
   29.695       87
   29.710       97
   29.725      104
   29.740       97
   29.755       84
   29.770       84
   29.785      101
   29.800      122
   29.815      108
   29.830      118
   29.845       88
   29.860       75
   29.875       83
   29.890       87
   29.905       87
   29.920       85
   29.935       89
   29.950       82
   29.965       73
   29.980       80
   29.995       62
   30.010       66
   30.025       62
   30.040       54
   30.055       61
   30.070       60
   30.085       59
   30.100       61
   30.115       59
   30.130       59
   30.145       67
   30.160       60
   30.175       58
   30.190       53
   30.205       50
   30.220       46
   30.235       57
   30.250       63
   30.265       65
   30.280       61
   30.295       53
   30.310       56
   30.325       52
   30.340       48
   30.355       46
   30.370       50
   30.385       59
   30.400       60
   30.415       60
   30.430       63
   30.445       59
   30.460       61
   30.475       64
   30.490       60
   30.505       62
   30.520       69
   30.535       62
   30.550       76
   30.565       72
   30.580       64
   30.595       72
   30.610       84
   30.625       68
   30.640       83
   30.655       81
   30.670       78
   30.685       88
   30.700      103
   30.715       85
   30.730       88
   30.745       81
   30.760       78
   30.775       69
   30.790       82
   30.805       80
   30.820       81
   30.835       73
   30.850       78
   30.865       78
   30.880       70
   30.895       82
   30.910       73
   30.925       56
   30.940       49
   30.955       56
   30.970       58
   30.985       68
   31.000       65
   31.015       70
   31.030       87
   31.045       90
   31.060       82
   31.075       81
   31.090       83
   31.105       84
   31.120      101
   31.135      106
   31.150       92
   31.165       80
   31.180       89
   31.195       82
   31.210       84
   31.225       74
   31.240       62
   31.255       70
   31.270       54
   31.285       71
   31.300       68
   31.315       65
   31.330       68
   31.345       77
   31.360       68
   31.375       74
   31.390       57
   31.405       55
   31.420       76
   31.435       82
   31.450       76
   31.465       69
   31.480       68
   31.495       60
   31.510       80
   31.525       77
   31.540       63
   31.555       81
   31.570       61
   31.585       66
   31.600       69
   31.615       74
   31.630       73
   31.645       76
   31.660       85
   31.675       83
   31.690       69
   31.705       85
   31.720       73
   31.735       93
   31.750       85
   31.765       84
   31.780       78
   31.795       80
   31.810       85
   31.825       93
   31.840      100
   31.855      101
   31.870      104
   31.885      104
   31.900      102
   31.915      119
   31.930       93
   31.945       81
   31.960       83
   31.975       80
   31.990       85
   32.005       75
   32.020       82
   32.035       62
   32.050       85
   32.065       93
   32.080       99
   32.095       79
   32.110       89
   32.125       79
   32.140       63
   32.155       67
   32.170       72
   32.185       75
   32.200       53
   32.215       66
   32.230       78
   32.245       77
   32.260       73
   32.275       85
   32.290       80
   32.305       66
   32.320       73
   32.335       70
   32.350       64
   32.365       54
   32.380       64
   32.395       64
   32.410       64
   32.425       55
   32.440       53
   32.455       51
   32.470       53
   32.485       62
   32.500       71
   32.515       78
   32.530       70
   32.545       65
   32.560       69
   32.575       61
   32.590       70
   32.605       57
   32.620       48
   32.635       55
   32.650       55
   32.665       50
   32.680       45
   32.695       38
   32.710       58
   32.725       56
   32.740       45
   32.755       51
   32.770       60
   32.785       53
   32.800       53
   32.815       58
   32.830       56
   32.845       52
   32.860       60
   32.875       57
   32.890       46
   32.905       51
   32.920       47
   32.935       57
   32.950       56
   32.965       53
   32.980       56
   32.995       56
   33.010       64
   33.025       68
   33.040       72
   33.055       67
   33.070       79
   33.085       80
   33.100       77
   33.115       89
   33.130       87
   33.145       81
   33.160       72
   33.175       60
   33.190       61
   33.205       59
   33.220       72
   33.235       73
   33.250       61
   33.265       67
   33.280       71
   33.295       67
   33.310       73
   33.325       63
   33.340       56
   33.355       54
   33.370       60
   33.385       61
   33.400       60
   33.415       60
   33.430       69
   33.445       66
   33.460       67
   33.475       63
   33.490       71
   33.505       69
   33.520       63
   33.535       59
   33.550       69
   33.565       72
   33.580       85
   33.595       86
   33.610       82
   33.625       94
   33.640       95
   33.655      113
   33.670       94
   33.685       90
   33.700       95
   33.715       83
   33.730       75
   33.745       77
   33.760       67
   33.775       82
   33.790       72
   33.805       73
   33.820       71
   33.835       71
   33.850       88
   33.865       82
   33.880       62
   33.895       66
   33.910       79
   33.925       88
   33.940       81
   33.955       91
   33.970       77
   33.985       78
   34.000       73
   34.015       81
   34.030       81
   34.045       70
   34.060       57
   34.075       75
   34.090       78
   34.105       70
   34.120       71
   34.135       72
   34.150       72
   34.165       78
   34.180       78
   34.195       80
   34.210       81
   34.225       70
   34.240       69
   34.255       74
   34.270       64
   34.285       65
   34.300       64
   34.315       59
   34.330       66
   34.345       64
   34.360       53
   34.375       40
   34.390       45
   34.405       51
   34.420       63
   34.435       59
   34.450       51
   34.465       54
   34.480       60
   34.495       51
   34.510       42
   34.525       45
   34.540       58
   34.555       51
   34.570       60
   34.585       49
   34.600       49
   34.615       54
   34.630       71
   34.645       58
   34.660       68
   34.675       66
   34.690       69
   34.705       60
   34.720       55
   34.735       52
   34.750       46
   34.765       60
   34.780       61
   34.795       60
   34.810       65
   34.825       53
   34.840       51
   34.855       55
   34.870       66
   34.885       61
   34.900       52
   34.915       53
   34.930       48
   34.945       67
   34.960       61
   34.975       60
   34.990       66
   35.005       56
   35.020       53
   35.035       57
   35.050       56
   35.065       52
   35.080       57
   35.095       54
   35.110       58
   35.125       55
   35.140       58
   35.155       59
   35.170       67
   35.185       69
   35.200       82
   35.215       73
   35.230       69
   35.245       62
   35.260       61
   35.275       56
   35.290       69
   35.305       63
   35.320       58
   35.335       70
   35.350       65
   35.365       64
   35.380       67
   35.395       71
   35.410       84
   35.425       74
   35.440       67
   35.455       69
   35.470       71
   35.485       81
   35.500       76
   35.515       69
   35.530       63
   35.545       78
   35.560       80
   35.575       78
   35.590       75
   35.605       70
   35.620       79
   35.635       68
   35.650       89
   35.665       88
   35.680       80
   35.695       79
   35.710       81
   35.725       92
   35.740      100
   35.755       93
   35.770       86
   35.785       67
   35.800       62
   35.815       76
   35.830       65
   35.845       56
   35.860       57
   35.875       63
   35.890       62
   35.905       64
   35.920       57
   35.935       50
   35.950       52
   35.965       50
   35.980       52
   35.995       56
   36.010       54
   36.025       50
   36.040       52
   36.055       36
   36.070       49
   36.085       51
   36.100       55
   36.115       56
   36.130       46
   36.145       62
   36.160       59
   36.175       55
   36.190       47
   36.205       48
   36.220       55
   36.235       55
   36.250       57
   36.265       56
   36.280       57
   36.295       57
   36.310       51
   36.325       51
   36.340       59
   36.355       49
   36.370       56
   36.385       63
   36.400       62
   36.415       51
   36.430       52
   36.445       59
   36.460       72
   36.475       68
   36.490       56
   36.505       57
   36.520       61
   36.535       57
   36.550       45
   36.565       57
   36.580       56
   36.595       38
   36.610       47
   36.625       46
   36.640       48
   36.655       60
   36.670       55
   36.685       54
   36.700       48
   36.715       48
   36.730       55
   36.745       60
   36.760       55
   36.775       50
   36.790       51
   36.805       47
   36.820       48
   36.835       53
   36.850       55
   36.865       52
   36.880       54
   36.895       56
   36.910       75
   36.925       61
   36.940       58
   36.955       46
   36.970       61
   36.985       70
   37.000       62
   37.015       68
   37.030       71
   37.045       55
   37.060       61
   37.075       64
   37.090       49
   37.105       61
   37.120       58
   37.135       55
   37.150       51
   37.165       63
   37.180       58
   37.195       62
   37.210       64
   37.225       51
   37.240       58
   37.255       67
   37.270       59
   37.285       69
   37.300       58
   37.315       64
   37.330       61
   37.345       60
   37.360       59
   37.375       53
   37.390       59
   37.405       63
   37.420       50
   37.435       67
   37.450       74
   37.465       64
   37.480       61
   37.495       51
   37.510       62
   37.525       49
   37.540       52
   37.555       50
   37.570       45
   37.585       47
   37.600       54
   37.615       59
   37.630       51
   37.645       51
   37.660       51
   37.675       55
   37.690       42
   37.705       45
   37.720       54
   37.735       42
   37.750       42
   37.765       56
   37.780       58
   37.795       59
   37.810       73
   37.825       46
   37.840       41
   37.855       63
   37.870       65
   37.885       47
   37.900       50
   37.915       53
   37.930       53
   37.945       53
   37.960       53
   37.975       60
   37.990       57
   38.005       51
   38.020       45
   38.035       54
   38.050       64
   38.065       66
   38.080       56
   38.095       57
   38.110       54
   38.125       54
   38.140       63
   38.155       61
   38.170       69
   38.185       64
   38.200       55
   38.215       63
   38.230       81
   38.245       69
   38.260       54
   38.275       56
   38.290       35
   38.305       51
   38.320       55
   38.335       52
   38.350       60
   38.365       58
   38.380       56
   38.395       62
   38.410       59
   38.425       49
   38.440       52
   38.455       54
   38.470       50
   38.485       68
   38.500       65
   38.515       61
   38.530       74
   38.545       79
   38.560       63
   38.575       67
   38.590       48
   38.605       53
   38.620       45
   38.635       43
   38.650       48
   38.665       43
   38.680       61
   38.695       56
   38.710       48
   38.725       57
   38.740       42
   38.755       48
   38.770       41
   38.785       52
   38.800       48
   38.815       59
   38.830       54
   38.845       65
   38.860       63
   38.875       64
   38.890       71
   38.905       50
   38.920       56
   38.935       55
   38.950       60
   38.965       70
   38.980       76
   38.995       72
   39.010       74
   39.025       54
   39.040       45
   39.055       53
   39.070       61
   39.085       46
   39.100       49
   39.115       44
   39.130       43
   39.145       57
   39.160       60
   39.175       50
   39.190       44
   39.205       47
   39.220       56
   39.235       56
   39.250       57
   39.265       51
   39.280       59
   39.295       55
   39.310       45
   39.325       46
   39.340       49
   39.355       44
   39.370       50
   39.385       56
   39.400       45
   39.415       42
   39.430       44
   39.445       41
   39.460       45
   39.475       53
   39.490       49
   39.505       39
   39.520       48
   39.535       54
   39.550       49
   39.565       43
   39.580       48
   39.595       43
   39.610       40
   39.625       47
   39.640       51
   39.655       45
   39.670       45
   39.685       52
   39.700       56
   39.715       40
   39.730       45
   39.745       51
   39.760       56
   39.775       61
   39.790       52
   39.805       57
   39.820       49
   39.835       45
   39.850       50
   39.865       64
   39.880       49
   39.895       54
   39.910       46
   39.925       53
   39.940       62
   39.955       59
   39.970       57
   39.985       57
   40.000       75
   40.015       70
   40.030       67
   40.045       71
   40.060       80
   40.075       55
   40.090       54
   40.105       53
   40.120       55
   40.135       42
   40.150       55
   40.165       49
   40.180       44
   40.195       49
   40.210       59
   40.225       51
   40.240       45
   40.255       39
   40.270       45
   40.285       53
   40.300       37
   40.315       39
   40.330       50
   40.345       67
   40.360       72
   40.375       61
   40.390       50
   40.405       46
   40.420       42
   40.435       56
   40.450       49
   40.465       45
   40.480       58
   40.495       63
   40.510       48
   40.525       59
   40.540       62
   40.555       74
   40.570       49
   40.585       56
   40.600       53
   40.615       46
   40.630       56
   40.645       62
   40.660       59
   40.675       60
   40.690       51
   40.705       60
   40.720       61
   40.735       51
   40.750       46
   40.765       47
   40.780       54
   40.795       61
   40.810       42
   40.825       52
   40.840       52
   40.855       55
   40.870       55
   40.885       50
   40.900       60
   40.915       52
   40.930       52
   40.945       49
   40.960       45
   40.975       57
   40.990       51
   41.005       51
   41.020       57
   41.035       53
   41.050       53
   41.065       50
   41.080       52
   41.095       52
   41.110       42
   41.125       38
   41.140       40
   41.155       49
   41.170       47
   41.185       39
   41.200       44
   41.215       54
   41.230       45
   41.245       47
   41.260       46
   41.275       39
   41.290       47
   41.305       39
   41.320       47
   41.335       48
   41.350       47
   41.365       39
   41.380       39
   41.395       47
   41.410       50
   41.425       37
   41.440       45
   41.455       49
   41.470       46
   41.485       42
   41.500       46
   41.515       47
   41.530       49
   41.545       46
   41.560       43
   41.575       51
   41.590       51
   41.605       50
   41.620       45
   41.635       52
   41.650       61
   41.665       47
   41.680       41
   41.695       48
   41.710       42
   41.725       45
   41.740       44
   41.755       35
   41.770       48
   41.785       49
   41.800       53
   41.815       48
   41.830       58
   41.845       49
   41.860       45
   41.875       46
   41.890       51
   41.905       55
   41.920       48
   41.935       49
   41.950       50
   41.965       56
   41.980       62
   41.995       53
   42.010       43
   42.025       38
   42.040       47
   42.055       42
   42.070       58
   42.085       53
   42.100       58
   42.115       42
   42.130       35
   42.145       48
   42.160       53
   42.175       43
   42.190       56
   42.205       54
   42.220       46
   42.235       52
   42.250       56
   42.265       41
   42.280       50
   42.295       48
   42.310       52
   42.325       50
   42.340       50
   42.355       46
   42.370       49
   42.385       57
   42.400       57
   42.415       55
   42.430       45
   42.445       55
   42.460       52
   42.475       52
   42.490       47
   42.505       49
   42.520       58
   42.535       42
   42.550       44
   42.565       52
   42.580       57
   42.595       61
   42.610       51
   42.625       57
   42.640       47
   42.655       46
   42.670       48
   42.685       56
   42.700       49
   42.715       45
   42.730       49
   42.745       50
   42.760       37
   42.775       49
   42.790       36
   42.805       41
   42.820       45
   42.835       38
   42.850       46
   42.865       47
   42.880       37
   42.895       52
   42.910       56
   42.925       47
   42.940       45
   42.955       43
   42.970       42
   42.985       44
   43.000       48
   43.015       48
   43.030       48
   43.045       46
   43.060       47
   43.075       49
   43.090       37
   43.105       43
   43.120       43
   43.135       37
   43.150       47
   43.165       46
   43.180       40
   43.195       43
   43.210       46
   43.225       39
   43.240       42
   43.255       48
   43.270       40
   43.285       39
   43.300       62
   43.315       64
   43.330       47
   43.345       47
   43.360       53
   43.375       50
   43.390       44
   43.405       46
   43.420       53
   43.435       54
   43.450       41
   43.465       50
   43.480       44
   43.495       42
   43.510       44
   43.525       33
   43.540       51
   43.555       38
   43.570       41
   43.585       46
   43.600       35
   43.615       44
   43.630       44
   43.645       43
   43.660       40
   43.675       35
   43.690       45
   43.705       44
   43.720       58
   43.735       46
   43.750       55
   43.765       48
   43.780       49
   43.795       55
   43.810       53
   43.825       37
   43.840       43
   43.855       51
   43.870       50
   43.885       43
   43.900       40
   43.915       38
   43.930       45
   43.945       43
   43.960       42
   43.975       40
   43.990       37
   44.005       39
   44.020       36
   44.035       47
   44.050       40
   44.065       43
   44.080       51
   44.095       50
   44.110       47
   44.125       53
   44.140       46
   44.155       53
   44.170       45
   44.185       50
   44.200       61
   44.215       56
   44.230       52
   44.245       51
   44.260       43
   44.275       49
   44.290       54
   44.305       53
   44.320       56
   44.335       54
   44.350       49
   44.365       51
   44.380       53
   44.395       57
   44.410       52
   44.425       63
   44.440       57
   44.455       52
   44.470       49
   44.485       44
   44.500       52
   44.515       54
   44.530       49
   44.545       36
   44.560       38
   44.575       48
   44.590       49
   44.605       36
   44.620       50
   44.635       49
   44.650       45
   44.665       42
   44.680       45
   44.695       45
   44.710       36
   44.725       34
   44.740       53
   44.755       60
   44.770       36
   44.785       37
   44.800       46
   44.815       40
   44.830       44
   44.845       49
   44.860       43
   44.875       43
   44.890       42
   44.905       40
   44.920       45
   44.935       55
   44.950       58
   44.965       57
   44.980       57
   44.995       54
   45.010       53
   45.025       46
   45.040       52
   45.055       57
   45.070       50
   45.085       51
   45.100       47
   45.115       59
   45.130       49
   45.145       49
   45.160       52
   45.175       44
   45.190       53
   45.205       52
   45.220       52
   45.235       51
   45.250       49
   45.265       42
   45.280       57
   45.295       64
   45.310       56
   45.325       49
   45.340       55
   45.355       59
   45.370       50
   45.385       53
   45.400       42
   45.415       58
   45.430       56
   45.445       49
   45.460       45
   45.475       47
   45.490       41
   45.505       46
   45.520       43
   45.535       49
   45.550       39
   45.565       39
   45.580       38
   45.595       44
   45.610       46
   45.625       39
   45.640       44
   45.655       49
   45.670       54
   45.685       47
   45.700       45
   45.715       48
   45.730       44
   45.745       53
   45.760       38
   45.775       43
   45.790       45
   45.805       44
   45.820       39
   45.835       47
   45.850       33
   45.865       40
   45.880       35
   45.895       39
   45.910       40
   45.925       39
   45.940       36
   45.955       40
   45.970       48
   45.985       33
