    4.000       47
    4.015       41
    4.030       41
    4.045       47
    4.060       52
    4.075       58
    4.090       51
    4.105       45
    4.120       49
    4.135       48
    4.150       49
    4.165       53
    4.180       52
    4.195       55
    4.210       44
    4.225       46
    4.240       47
    4.255       40
    4.270       34
    4.285       47
    4.300       40
    4.315       34
    4.330       47
    4.345       45
    4.360       41
    4.375       35
    4.390       43
    4.405       53
    4.420       50
    4.435       47
    4.450       58
    4.465       56
    4.480       38
    4.495       47
    4.510       45
    4.525       50
    4.540       47
    4.555       44
    4.570       46
    4.585       45
    4.600       47
    4.615       47
    4.630       50
    4.645       55
    4.660       46
    4.675       45
    4.690       52
    4.705       49
    4.720       48
    4.735       49
    4.750       46
    4.765       40
    4.780       39
    4.795       54
    4.810       52
    4.825       36
    4.840       45
    4.855       37
    4.870       48
    4.885       45
    4.900       56
    4.915       58
    4.930       51
    4.945       55
    4.960       53
    4.975       46
    4.990       43
    5.005       49
    5.020       48
    5.035       45
    5.050       42
    5.065       40
    5.080       49
    5.095       42
    5.110       46
    5.125       44
    5.140       39
    5.155       49
    5.170       49
    5.185       44
    5.200       41
    5.215       37
    5.230       44
    5.245       44
    5.260       43
    5.275       50
    5.290       47
    5.305       46
    5.320       43
    5.335       47
    5.350       50
    5.365       44
    5.380       31
    5.395       49
    5.410       52
    5.425       58
    5.440       46
    5.455       41
    5.470       38
    5.485       43
    5.500       51
    5.515       43
    5.530       53
    5.545       49
    5.560       47
    5.575       50
    5.590       40
    5.605       41
    5.620       43
    5.635       44
    5.650       43
    5.665       39
    5.680       39
    5.695       45
    5.710       45
    5.725       54
    5.740       43
    5.755       41
    5.770       45
    5.785       43
    5.800       43
    5.815       41
    5.830       41
    5.845       48
    5.860       49
    5.875       45
    5.890       47
    5.905       39
    5.920       37
    5.935       44
    5.950       41
    5.965       47
    5.980       49
    5.995       57
    6.010       51
    6.025       49
    6.040       44
    6.055       51
    6.070       45
    6.085       38
    6.100       44
    6.115       50
    6.130       46
    6.145       35
    6.160       38
    6.175       49
    6.190       49
    6.205       48
    6.220       39
    6.235       58
    6.250       52
    6.265       48
    6.280       55
    6.295       65
    6.310       64
    6.325       66
    6.340       69
    6.355       71
    6.370       54
    6.385       80
    6.400      102
    6.415       96
    6.430      101
    6.445      103
    6.460      103
    6.475      120
    6.490      138
    6.505      155
    6.520      149
    6.535      154
    6.550      176
    6.565      176
    6.580      175
    6.595      217
    6.610      267
    6.625      329
    6.640      397
    6.655      376
    6.670      351
    6.685      336
    6.700      350
    6.715      255
    6.730      139
    6.745       89
    6.760       50
    6.775       49
    6.790       48
    6.805       46
    6.820       32
    6.835       46
    6.850       53
    6.865       43
    6.880       40
    6.895       36
    6.910       45
    6.925       49
    6.940       59
    6.955       44
    6.970       51
    6.985       56
    7.000       47
    7.015       53
    7.030       52
    7.045       50
    7.060       63
    7.075       52
    7.090       73
    7.105       59
    7.120       79
    7.135       78
    7.150       65
    7.165       63
    7.180       76
    7.195       92
    7.210      112
    7.225      119
    7.240      102
    7.255       78
    7.270       62
    7.285       49
    7.300       43
    7.315       35
    7.330       36
    7.345       48
    7.360       42
    7.375       39
    7.390       37
    7.405       32
    7.420       38
    7.435       40
    7.450       35
    7.465       38
    7.480       40
    7.495       42
    7.510       50
    7.525       41
    7.540       45
    7.555       37
    7.570       39
    7.585       41
    7.600       50
    7.615       50
    7.630       43
    7.645       48
    7.660       48
    7.675       45
    7.690       56
    7.705       50
    7.720       48
    7.735       45
    7.750       53
    7.765       43
    7.780       41
    7.795       42
    7.810       49
    7.825       38
    7.840       35
    7.855       36
    7.870       35
    7.885       39
    7.900       32
    7.915       46
    7.930       38
    7.945       40
    7.960       37
    7.975       38
    7.990       31
    8.005       34
    8.020       42
    8.035       39
    8.050       43
    8.065       45
    8.080       44
    8.095       47
    8.110       42
    8.125       36
    8.140       38
    8.155       41
    8.170       44
    8.185       50
    8.200       49
    8.215       54
    8.230       55
    8.245       46
    8.260       45
    8.275       45
    8.290       45
    8.305       43
    8.320       39
    8.335       39
    8.350       41
    8.365       48
    8.380       46
    8.395       40
    8.410       44
    8.425       43
    8.440       40
    8.455       55
    8.470       44
    8.485       40
    8.500       37
    8.515       39
    8.530       51
    8.545       54
    8.560       44
    8.575       60
    8.590       52
    8.605       54
    8.620       57
    8.635       57
    8.650       54
    8.665       40
    8.680       43
    8.695       37
    8.710       44
    8.725       33
    8.740       34
    8.755       43
    8.770       40
    8.785       46
    8.800       42
    8.815       38
    8.830       49
    8.845       49
    8.860       51
    8.875       39
    8.890       36
    8.905       36
    8.920       40
    8.935       42
    8.950       43
    8.965       40
    8.980       37
    8.995       39
    9.010       48
    9.025       45
    9.040       46
    9.055       45
    9.070       55
    9.085       50
    9.100       41
    9.115       41
    9.130       40
    9.145       43
    9.160       30
    9.175       39
    9.190       43
    9.205       39
    9.220       49
    9.235       27
    9.250       37
    9.265       46
    9.280       49
    9.295       64
    9.310       48
    9.325       46
    9.340       45
    9.355       46
    9.370       41
    9.385       43
    9.400       46
    9.415       49
    9.430       47
    9.445       55
    9.460       49
    9.475       45
    9.490       40
    9.505       36
    9.520       42
    9.535       44
    9.550       45
    9.565       41
    9.580       44
    9.595       41
    9.610       39
    9.625       49
    9.640       48
    9.655       58
    9.670       44
    9.685       32
    9.700       42
    9.715       46
    9.730       45
    9.745       44
    9.760       45
    9.775       46
    9.790       45
    9.805       47
    9.820       46
    9.835       54
    9.850       54
    9.865       55
    9.880       57
    9.895       53
    9.910       45
    9.925       45
    9.940       45
    9.955       42
    9.970       35
    9.985       38
   10.000       42
   10.015       44
   10.030       44
   10.045       44
   10.060       42
   10.075       39
   10.090       47
   10.105       50
   10.120       39
   10.135       33
   10.150       43
   10.165       37
   10.180       52
   10.195       37
   10.210       48
   10.225       45
   10.240       40
   10.255       36
   10.270       50
   10.285       48
   10.300       44
   10.315       44
   10.330       49
   10.345       48
   10.360       50
   10.375       54
   10.390       51
   10.405       54
   10.420       70
   10.435       73
   10.450       65
   10.465       65
   10.480       85
   10.495       66
   10.510       75
   10.525       96
   10.540      102
   10.555       84
   10.570       69
   10.585       49
   10.600       55
   10.615       44
   10.630       38
   10.645       40
   10.660       50
   10.675       47
   10.690       52
   10.705       48
   10.720       61
   10.735       70
   10.750       72
   10.765       71
   10.780       84
   10.795       92
   10.810      108
   10.825      115
   10.840      123
   10.855      128
   10.870      150
   10.885      163
   10.900      178
   10.915      238
   10.930      247
   10.945      198
   10.960      147
   10.975       96
   10.990       52
   11.005       52
   11.020       45
   11.035       50
   11.050       41
   11.065       46
   11.080       42
   11.095       44
   11.110       56
   11.125       47
   11.140       47
   11.155       45
   11.170       54
   11.185       50
   11.200       44
   11.215       48
   11.230       53
   11.245       51
   11.260       61
   11.275       79
   11.290       80
   11.305       74
   11.320       67
   11.335       60
   11.350       54
   11.365       52
   11.380       51
   11.395       52
   11.410       45
   11.425       52
   11.440       60
   11.455       70
   11.470       62
   11.485       60
   11.500       61
   11.515       58
   11.530       57
   11.545       50
   11.560       42
   11.575       46
   11.590       51
   11.605       35
   11.620       39
   11.635       45
   11.650       44
   11.665       32
   11.680       42
   11.695       45
   11.710       45
   11.725       40
   11.740       46
   11.755       58
   11.770       65
   11.785       68
   11.800       63
   11.815       64
   11.830       52
   11.845       69
   11.860       66
   11.875       50
   11.890       62
   11.905       68
   11.920       66
   11.935       73
   11.950       76
   11.965       57
   11.980       51
   11.995       43
   12.010       40
   12.025       51
   12.040       51
   12.055       51
   12.070       56
   12.085       59
   12.100       66
   12.115       71
   12.130       65
   12.145       66
   12.160       52
   12.175       57
   12.190       42
   12.205       48
   12.220       31
   12.235       23
   12.250       29
   12.265       36
   12.280       39
   12.295       42
   12.310       41
   12.325       37
   12.340       36
   12.355       44
   12.370       41
   12.385       45
   12.400       56
   12.415       48
   12.430       41
   12.445       38
   12.460       42
   12.475       43
   12.490       36
   12.505       39
   12.520       41
   12.535       48
   12.550       45
   12.565       58
   12.580       50
   12.595       56
   12.610       74
   12.625       69
   12.640       88
   12.655      104
   12.670      117
   12.685      142
   12.700      185
   12.715      200
   12.730      245
   12.745      276
   12.760      311
   12.775      273
   12.790      192
   12.805      183
   12.820      150
   12.835      154
   12.850      140
   12.865      117
   12.880       89
   12.895       63
   12.910       45
   12.925       60
   12.940       60
   12.955       62
   12.970       53
   12.985       59
   13.000       77
   13.015       73
   13.030       82
   13.045       86
   13.060      123
   13.075      139
   13.090      135
   13.105      170
   13.120      225
   13.135      279
   13.150      263
   13.165      199
   13.180      156
   13.195      147
   13.210      161
   13.225      177
   13.240      203
   13.255      242
   13.270      308
   13.285      367
   13.300      446
   13.315      541
   13.330      577
   13.345      535
   13.360      464
   13.375      455
   13.390      525
   13.405      700
   13.420      942
   13.435     1073
   13.450      865
   13.465      577
   13.480      325
   13.495      178
   13.510      117
   13.525      102
   13.540       90
   13.555      108
   13.570      105
   13.585      118
   13.600      131
   13.615      149
   13.630      167
   13.645      189
   13.660      237
   13.675      272
   13.690      273
   13.705      275
   13.720      228
   13.735      165
   13.750      102
   13.765       70
   13.780       66
   13.795       62
   13.810       67
   13.825       50
   13.840       55
   13.855       50
   13.870       56
   13.885       56
   13.900       58
   13.915       70
   13.930       60
   13.945       77
   13.960       83
   13.975       63
   13.990       56
   14.005       50
   14.020       44
   14.035       35
   14.050       36
   14.065       36
   14.080       39
   14.095       39
   14.110       38
   14.125       45
   14.140       36
   14.155       42
   14.170       48
   14.185       48
   14.200       45
   14.215       54
   14.230       57
   14.245       61
   14.260       64
   14.275       69
   14.290       89
   14.305      119
   14.320      146
   14.335      153
   14.350      142
   14.365      132
   14.380      149
   14.395      143
   14.410      154
   14.425      162
   14.440      137
   14.455      126
   14.470      141
   14.485      144
   14.500      163
   14.515      157
   14.530      160
   14.545      141
   14.560      175
   14.575      181
   14.590      211
   14.605      264
   14.620      325
   14.635      320
   14.650      263
   14.665      167
   14.680      104
   14.695       57
   14.710       44
   14.725       46
   14.740       45
   14.755       40
   14.770       36
   14.785       40
   14.800       48
   14.815       40
   14.830       29
   14.845       36
   14.860       35
   14.875       27
   14.890       39
   14.905       33
   14.920       33
   14.935       35
   14.950       37
   14.965       47
   14.980       50
   14.995       63
   15.010       71
   15.025       63
   15.040       76
   15.055      100
   15.070      113
   15.085      168
   15.100      218
   15.115      271
   15.130      302
   15.145      371
   15.160      403
   15.175      437
   15.190      521
   15.205      680
   15.220      797
   15.235      734
   15.250      541
   15.265      391
   15.280      219
   15.295      144
   15.310      123
   15.325      109
   15.340      119
   15.355       99
   15.370      108
   15.385      122
   15.400      142
   15.415      180
   15.430      191
   15.445      193
   15.460      186
   15.475      171
   15.490      160
   15.505      157
   15.520      161
   15.535      132
   15.550      152
   15.565      148
   15.580      140
   15.595      171
   15.610      196
   15.625      200
   15.640      246
   15.655      225
   15.670      222
   15.685      259
   15.700      334
   15.715      372
   15.730      380
   15.745      287
   15.760      234
   15.775      176
   15.790      148
   15.805      144
   15.820      169
   15.835      162
   15.850      229
   15.865      218
   15.880      236
   15.895      273
   15.910      308
   15.925      282
   15.940      205
   15.955      127
   15.970       85
   15.985       79
   16.000       60
   16.015       48
   16.030       44
   16.045       46
   16.060       45
   16.075       45
   16.090       55
   16.105       59
   16.120       67
   16.135       81
   16.150       92
   16.165      113
   16.180      139
   16.195      177
   16.210      217
   16.225      250
   16.240      277
   16.255      290
   16.270      276
   16.285      266
   16.300      227
   16.315      161
   16.330      113
   16.345       92
   16.360       80
   16.375       80
   16.390       96
   16.405      113
   16.420      144
   16.435      138
   16.450      150
   16.465      139
   16.480      183
   16.495      189
   16.510      213
   16.525      252
   16.540      318
   16.555      430
   16.570      487
   16.585      439
   16.600      366
   16.615      299
   16.630      244
   16.645      254
   16.660      301
   16.675      360
   16.690      396
   16.705      372
   16.720      343
   16.735      308
   16.750      293
   16.765      262
   16.780      238
   16.795      212
   16.810      247
   16.825      289
   16.840      298
   16.855      310
   16.870      290
   16.885      277
   16.900      281
   16.915      314
   16.930      326
   16.945      294
   16.960      269
   16.975      197
   16.990      147
   17.005      120
   17.020      114
   17.035      101
   17.050       99
   17.065      111
   17.080      122
   17.095      144
   17.110      199
   17.125      223
   17.140      277
   17.155      282
   17.170      256
   17.185      201
   17.200      169
   17.215      163
   17.230      155
   17.245      157
   17.260      175
   17.275      226
   17.290      238
   17.305      297
   17.320      369
   17.335      439
   17.350      461
   17.365      452
   17.380      408
   17.395      316
   17.410      222
   17.425      151
   17.440      113
   17.455      109
   17.470      106
   17.485      119
   17.500      102
   17.515      109
   17.530      118
   17.545      126
   17.560      114
   17.575      124
   17.590      153
   17.605      177
   17.620      225
   17.635      226
   17.650      221
   17.665      178
   17.680      116
   17.695       89
   17.710       70
   17.725       72
   17.740       94
   17.755       92
   17.770       76
   17.785      111
   17.800      107
   17.815      104
   17.830       87
   17.845       73
   17.860       65
   17.875       89
   17.890      102
   17.905      118
   17.920      101
   17.935       73
   17.950       83
   17.965       65
   17.980       62
   17.995       57
   18.010       51
   18.025       43
   18.040       47
   18.055       51
   18.070       53
   18.085       41
   18.100       39
   18.115       48
   18.130       48
   18.145       44
   18.160       58
   18.175       39
   18.190       39
   18.205       40
   18.220       38
   18.235       40
   18.250       37
   18.265       36
   18.280       43
   18.295       51
   18.310       64
   18.325       74
   18.340       76
   18.355       94
   18.370      114
   18.385      138
   18.400      174
   18.415      183
   18.430      201
   18.445      218
   18.460      235
   18.475      176
   18.490      155
   18.505      116
   18.520      104
   18.535       81
   18.550       62
   18.565       61
   18.580       52
   18.595       46
   18.610       53
   18.625       59
   18.640       62
   18.655       79
   18.670       78
   18.685       93
   18.700      106
   18.715      139
   18.730      150
   18.745      142
   18.760      126
   18.775      123
   18.790      124
   18.805      146
   18.820      148
   18.835      137
   18.850      111
   18.865       90
   18.880       89
   18.895       67
   18.910       55
   18.925       54
   18.940       45
   18.955       59
   18.970       50
   18.985       66
   19.000       77
   19.015       78
   19.030       86
   19.045       99
   19.060       96
   19.075       75
   19.090       82
   19.105       82
   19.120      103
   19.135      115
   19.150      109
   19.165       84
   19.180       66
   19.195       61
   19.210       55
   19.225       34
   19.240       39
   19.255       47
   19.270       47
   19.285       38
   19.300       32
   19.315       29
   19.330       36
   19.345       42
   19.360       41
   19.375       40
   19.390       39
   19.405       35
   19.420       40
   19.435       41
   19.450       53
   19.465       45
   19.480       61
   19.495       67
   19.510       63
   19.525       75
   19.540       91
   19.555       86
   19.570       75
   19.585       70
   19.600       69
   19.615       61
   19.630       56
   19.645       65
   19.660       78
   19.675       74
   19.690       88
   19.705      104
   19.720      105
   19.735      120
   19.750      155
   19.765      151
   19.780      151
   19.795      136
   19.810      143
   19.825      142
   19.840      112
   19.855       85
   19.870       81
   19.885       70
   19.900       71
   19.915       81
   19.930       91
   19.945      112
   19.960      131
   19.975      183
   19.990      223
   20.005      288
   20.020      337
   20.035      461
   20.050      533
   20.065      558
   20.080      471
   20.095      325
   20.110      260
   20.125      229
   20.140      212
   20.155      226
   20.170      240
   20.185      258
   20.200      259
   20.215      243
   20.230      211
   20.245      142
   20.260       98
   20.275       75
   20.290       70
   20.305       69
   20.320       64
   20.335       69
   20.350       74
   20.365       76
   20.380       91
   20.395      104
   20.410       88
   20.425       79
   20.440       72
   20.455       53
   20.470       53
   20.485       47
   20.500       41
   20.515       45
   20.530       48
   20.545       40
   20.560       38
   20.575       41
   20.590       41
   20.605       42
   20.620       46
   20.635       35
   20.650       35
   20.665       43
   20.680       61
   20.695       77
   20.710       76
   20.725       89
   20.740       72
   20.755       79
   20.770       59
   20.785       49
   20.800       58
   20.815       58
   20.830       53
   20.845       62
   20.860       78
   20.875      101
   20.890      116
   20.905      131
   20.920      174
   20.935      172
   20.950      178
   20.965      164
   20.980      160
   20.995      162
   21.010      178
   21.025      186
   21.040      209
   21.055      168
   21.070      122
   21.085       89
   21.100       71
   21.115       51
   21.130       43
   21.145       44
   21.160       41
   21.175       45
   21.190       49
   21.205       52
   21.220       55
   21.235       44
   21.250       49
   21.265       47
   21.280       42
   21.295       50
   21.310       64
   21.325       61
   21.340       67
   21.355       85
   21.370       88
   21.385      120
   21.400      101
   21.415       93
   21.430       71
   21.445       73
   21.460       54
   21.475       51
   21.490       40
   21.505       36
   21.520       44
   21.535       42
   21.550       31
   21.565       37
   21.580       37
   21.595       40
   21.610       36
   21.625       44
   21.640       50
   21.655       53
   21.670       52
   21.685       63
   21.700       73
   21.715       89
   21.730      117
   21.745      138
   21.760      183
   21.775      169
   21.790      161
   21.805      151
   21.820      132
   21.835      114
   21.850      104
   21.865      121
   21.880      161
   21.895      164
   21.910      235
   21.925      299
   21.940      396
   21.955      489
   21.970      473
   21.985      401
   22.000      262
   22.015      167
   22.030      148
   22.045      123
   22.060      116
   22.075       97
   22.090       95
   22.105       94
   22.120       96
   22.135       76
   22.150       58
   22.165       47
   22.180       46
   22.195       50
   22.210       39
   22.225       42
   22.240       34
   22.255       31
   22.270       48
   22.285       53
   22.300       44
   22.315       54
   22.330       43
   22.345       54
   22.360       52
   22.375       61
   22.390       46
   22.405       54
   22.420       58
   22.435       59
   22.450       67
   22.465       95
   22.480       91
   22.495       89
   22.510       93
   22.525       95
   22.540      101
   22.555      103
   22.570      106
   22.585       88
   22.600       76
   22.615       83
   22.630       69
   22.645       57
   22.660       61
   22.675       75
   22.690       76
   22.705       77
   22.720       86
   22.735      107
   22.750       93
   22.765      106
   22.780      118
   22.795      140
   22.810      134
   22.825      121
   22.840      106
   22.855       92
   22.870       69
   22.885       89
   22.900      102
   22.915       91
   22.930      118
   22.945      131
   22.960      143
   22.975      156
   22.990      147
   23.005      135
   23.020      138
   23.035      131
   23.050      135
   23.065      126
   23.080       95
   23.095       78
   23.110       60
   23.125       51
   23.140       46
   23.155       49
   23.170       50
   23.185       43
   23.200       37
   23.215       52
   23.230       54
   23.245       61
   23.260       66
   23.275       70
   23.290       58
   23.305       61
   23.320       68
   23.335       94
   23.350      103
   23.365      111
   23.380      104
   23.395       91
   23.410       71
   23.425       65
   23.440       44
   23.455       44
   23.470       41
   23.485       49
   23.500       44
   23.515       63
   23.530       49
   23.545       59
   23.560       52
   23.575       54
   23.590       52
   23.605       57
   23.620       49
   23.635       44
   23.650       51
   23.665       57
   23.680       63
   23.695       68
   23.710       70
   23.725       71
   23.740       75
   23.755       60
   23.770       66
   23.785       56
   23.800       45
   23.815       47
   23.830       45
   23.845       43
   23.860       45
   23.875       36
   23.890       42
   23.905       46
   23.920       43
   23.935       50
   23.950       48
   23.965       44
   23.980       59
   23.995       57
   24.010       78
   24.025       61
   24.040       64
   24.055       52
   24.070       58
   24.085       64
   24.100       63
   24.115       57
   24.130       59
   24.145       86
   24.160       96
   24.175      109
   24.190      106
   24.205       78
   24.220       74
   24.235       49
   24.250       53
   24.265       37
   24.280       40
   24.295       50
   24.310       45
   24.325       50
   24.340       53
   24.355       66
   24.370       57
   24.385       69
   24.400       82
   24.415       86
   24.430       84
   24.445       81
   24.460       73
   24.475       57
   24.490       49
   24.505       39
   24.520       31
   24.535       27
   24.550       43
   24.565       47
   24.580       47
   24.595       49
   24.610       44
   24.625       45
   24.640       45
   24.655       48
   24.670       42
   24.685       45
   24.700       64
   24.715       57
   24.730       68
   24.745       78
   24.760       94
   24.775       97
   24.790       97
   24.805       85
   24.820       81
   24.835       79
   24.850       60
   24.865       59
   24.880       58
   24.895       58
   24.910       68
   24.925       62
   24.940       66
   24.955       52
   24.970       51
   24.985       47
   25.000       42
   25.015       42
   25.030       58
   25.045       42
   25.060       45
   25.075       52
   25.090       66
   25.105       78
   25.120       84
   25.135      115
   25.150      130
   25.165      135
   25.180      109
   25.195      100
   25.210       68
   25.225       53
   25.240       60
   25.255       66
   25.270       65
   25.285       60
   25.300       61
   25.315       62
   25.330       69
   25.345       67
   25.360       73
   25.375       79
   25.390       77
   25.405       62
   25.420       41
   25.435       51
   25.450       50
   25.465       46
   25.480       51
   25.495       49
   25.510       53
   25.525       64
   25.540       58
   25.555       80
   25.570       92
   25.585      107
   25.600      112
   25.615       89
   25.630       98
   25.645       77
   25.660       64
   25.675       58
   25.690       47
   25.705       58
   25.720       53
   25.735       65
   25.750       69
   25.765       88
   25.780      107
   25.795      118
   25.810      139
   25.825      156
   25.840      185
   25.855      215
   25.870      189
   25.885      163
   25.900      136
   25.915      106
   25.930       88
   25.945       77
   25.960       75
   25.975       73
   25.990       89
   26.005      100
   26.020      121
   26.035      134
   26.050      147
   26.065      155
   26.080      155
   26.095      128
   26.110      105
   26.125       92
   26.140       76
   26.155       68
   26.170       68
   26.185       74
   26.200       73
   26.215       72
   26.230       67
   26.245       64
   26.260       63
   26.275       71
   26.290       80
   26.305       81
   26.320       98
   26.335      105
   26.350      109
   26.365      110
   26.380      104
   26.395       78
   26.410       67
   26.425       67
   26.440       62
   26.455       57
   26.470       57
   26.485       56
   26.500       66
   26.515       62
   26.530       65
   26.545       74
   26.560       69
   26.575       73
   26.590       58
   26.605       53
   26.620       50
   26.635       42
   26.650       44
   26.665       38
   26.680       48
   26.695       55
   26.710       50
   26.725       53
   26.740       56
   26.755       45
   26.770       55
   26.785       65
   26.800       73
   26.815       70
   26.830       88
   26.845       83
   26.860       69
   26.875       70
   26.890       62
   26.905       63
   26.920       49
   26.935       44
   26.950       55
   26.965       56
   26.980       52
   26.995       61
   27.010       58
   27.025       97
   27.040      124
   27.055      140
   27.070      163
   27.085      138
   27.100      157
   27.115      136
   27.130      150
   27.145      160
   27.160      169
   27.175      162
   27.190      122
   27.205      103
   27.220      103
   27.235       73
   27.250       59
   27.265       55
   27.280       53
   27.295       64
   27.310       58
   27.325       61
   27.340       69
   27.355       56
   27.370       56
   27.385       66
   27.400       66
   27.415       68
   27.430       86
   27.445       74
   27.460       62
   27.475       65
   27.490       63
   27.505       61
   27.520       63
   27.535       81
   27.550       69
   27.565       81
   27.580       84
   27.595       85
   27.610      108
   27.625      101
   27.640      106
   27.655      117
   27.670      108
   27.685      112
   27.700      119
   27.715      125
   27.730      147
   27.745      170
   27.760      187
   27.775      194
   27.790      212
   27.805      235
   27.820      230
   27.835      186
   27.850      161
   27.865      139
   27.880      114
   27.895      109
   27.910      101
   27.925       88
   27.940       84
   27.955       81
   27.970       72
   27.985       84
   28.000       88
   28.015       98
   28.030       95
   28.045       97
   28.060      121
   28.075      143
   28.090      116
   28.105      120
   28.120      118
   28.135       83
   28.150       90
   28.165       78
   28.180       80
   28.195       71
   28.210       73
   28.225       75
   28.240       77
   28.255       72
   28.270       69
   28.285       75
   28.300       68
   28.315       74
   28.330       75
   28.345       61
   28.360       60
   28.375       66
   28.390       77
   28.405       73
   28.420       88
   28.435      103
   28.450      103
   28.465       93
   28.480       90
   28.495       93
   28.510       99
   28.525      109
   28.540       94
   28.555       88
   28.570       93
   28.585       88
   28.600      109
   28.615       97
   28.630      111
   28.645      102
   28.660       81
   28.675       61
   28.690       52
   28.705       43
   28.720       49
   28.735       50
   28.750       56
   28.765       40
   28.780       43
   28.795       55
   28.810       65
   28.825       62
   28.840       65
   28.855       75
   28.870       92
   28.885       83
   28.900       80
   28.915       64
   28.930       55
   28.945       56
   28.960       68
   28.975       55
   28.990       49
   29.005       65
   29.020       75
   29.035       73
   29.050       71
   29.065       80
   29.080       86
   29.095       95
   29.110      101
   29.125      100
   29.140       98
   29.155      105
   29.170      101
   29.185      101
   29.200       91
   29.215      110
   29.230      116
   29.245      128
   29.260      127
   29.275      133
   29.290      120
   29.305      116
   29.320       83
   29.335       74
   29.350       77
   29.365       84
   29.380       77
   29.395       71
   29.410       71
   29.425       70
   29.440       82
   29.455       68
   29.470       58
   29.485       61
   29.500       46
   29.515       70
   29.530       59
   29.545       62
   29.560       58
   29.575       57
   29.590       57
   29.605       51
   29.620       61
   29.635       51
   29.650       54
   29.665       71
   29.680       69
   29.695       70
   29.710       82
   29.725       76
   29.740       93
   29.755      105
   29.770      105
   29.785       88
   29.800       99
   29.815       93
   29.830       97
   29.845       90
   29.860      124
   29.875      126
   29.890      151
   29.905      147
   29.920      124
   29.935      122
   29.950      104
   29.965       81
   29.980       86
   29.995       77
   30.010       68
   30.025       61
   30.040       67
   30.055       45
   30.070       63
   30.085       60
   30.100       53
   30.115       49
   30.130       47
   30.145       41
   30.160       41
   30.175       44
   30.190       47
   30.205       36
   30.220       43
   30.235       36
   30.250       51
   30.265       34
   30.280       41
   30.295       47
   30.310       46
   30.325       40
   30.340       46
   30.355       46
   30.370       42
   30.385       42
   30.400       45
   30.415       48
   30.430       53
   30.445       54
   30.460       49
   30.475       46
   30.490       50
   30.505       53
   30.520       59
   30.535       49
   30.550       49
   30.565       40
   30.580       46
   30.595       53
   30.610       49
   30.625       52
   30.640       51
   30.655       51
   30.670       62
   30.685       69
   30.700       64
   30.715       71
   30.730       72
   30.745       95
   30.760       93
   30.775      114
   30.790      103
   30.805       97
   30.820       95
   30.835      105
   30.850      104
   30.865      112
   30.880      114
   30.895      100
   30.910       78
   30.925       76
   30.940       71
   30.955       61
   30.970       61
   30.985       57
   31.000       49
   31.015       53
   31.030       43
   31.045       45
   31.060       61
   31.075       52
   31.090       60
   31.105       64
   31.120       74
   31.135       73
   31.150       94
   31.165      104
   31.180       96
   31.195       98
   31.210       95
   31.225       99
   31.240       98
   31.255       78
   31.270       68
   31.285       64
   31.300       59
   31.315       64
   31.330       60
   31.345       60
   31.360       66
   31.375       63
   31.390       60
   31.405       73
   31.420       83
   31.435       82
   31.450       88
   31.465       63
   31.480       69
   31.495       71
   31.510       61
   31.525       71
   31.540       94
   31.555       77
   31.570       74
   31.585       90
   31.600       73
   31.615       76
   31.630       77
   31.645       67
   31.660       86
   31.675       66
   31.690       59
   31.705       70
   31.720       84
   31.735       69
   31.750       67
   31.765       89
   31.780      100
   31.795      107
   31.810      109
   31.825      111
   31.840       87
   31.855       91
   31.870       87
   31.885       87
   31.900       85
   31.915       94
   31.930       87
   31.945       89
   31.960       90
   31.975       92
   31.990       95
   32.005       84
   32.020       80
   32.035       78
   32.050       91
   32.065       93
   32.080       96
   32.095       87
   32.110       98
   32.125       97
   32.140       91
   32.155      105
   32.170      111
   32.185      105
   32.200       88
   32.215       66
   32.230       64
   32.245       69
   32.260       61
   32.275       71
   32.290       88
   32.305      104
   32.320      110
   32.335      100
   32.350       92
   32.365       87
   32.380       79
   32.395       75
   32.410       59
   32.425       53
   32.440       55
   32.455       67
   32.470       58
   32.485       56
   32.500       52
   32.515       55
   32.530       53
   32.545       50
   32.560       49
   32.575       68
   32.590       61
   32.605       66
   32.620       69
   32.635       65
   32.650       60
   32.665       51
   32.680       65
   32.695       61
   32.710       36
   32.725       31
   32.740       43
   32.755       40
   32.770       39
   32.785       39
   32.800       42
   32.815       27
   32.830       40
   32.845       51
   32.860       59
   32.875       50
   32.890       35
   32.905       39
   32.920       36
   32.935       51
   32.950       50
   32.965       43
   32.980       43
   32.995       39
   33.010       33
   33.025       42
   33.040       42
   33.055       42
   33.070       54
   33.085       56
   33.100       49
   33.115       60
   33.130       66
   33.145       81
   33.160       94
   33.175       93
   33.190       86
   33.205       84
   33.220       72
   33.235       65
   33.250       57
   33.265       67
   33.280       60
   33.295       45
   33.310       43
   33.325       39
   33.340       46
   33.355       53
   33.370       48
   33.385       52
   33.400       51
   33.415       59
   33.430       57
   33.445       49
   33.460       58
   33.475       62
   33.490       55
   33.505       57
   33.520       53
   33.535       53
   33.550       58
   33.565       60
   33.580       52
   33.595       74
   33.610       69
   33.625       61
   33.640       71
   33.655       78
   33.670       88
   33.685       98
   33.700      101
   33.715      123
   33.730      142
   33.745      142
   33.760      135
   33.775      109
   33.790      105
   33.805       98
   33.820       90
   33.835       93
   33.850       79
   33.865       97
   33.880       88
   33.895       81
   33.910       94
   33.925       80
   33.940       67
   33.955       75
   33.970       74
   33.985       72
   34.000       73
   34.015       80
   34.030      111
   34.045      113
   34.060      101
   34.075       92
   34.090       83
   34.105       79
   34.120       70
   34.135       74
   34.150       71
   34.165       81
   34.180       74
   34.195       73
   34.210       70
   34.225       71
   34.240       82
   34.255       91
   34.270      101
   34.285      100
   34.300       78
   34.315       83
   34.330       81
   34.345       73
   34.360       71
   34.375       65
   34.390       64
   34.405       52
   34.420       49
   34.435       46
   34.450       48
   34.465       49
   34.480       44
   34.495       34
   34.510       48
   34.525       44
   34.540       44
   34.555       50
   34.570       47
   34.585       49
   34.600       43
   34.615       51
   34.630       56
   34.645       44
   34.660       47
   34.675       63
   34.690       76
   34.705       71
   34.720       58
   34.735       73
   34.750       81
   34.765       83
   34.780       79
   34.795       75
   34.810       61
   34.825       55
   34.840       48
   34.855       52
   34.870       46
   34.885       40
   34.900       32
   34.915       36
   34.930       44
   34.945       42
   34.960       46
   34.975       48
   34.990       50
   35.005       56
   35.020       61
   35.035       77
   35.050       79
   35.065       71
   35.080       60
   35.095       50
   35.110       42
   35.125       53
   35.140       53
   35.155       61
   35.170       53
   35.185       42
   35.200       54
   35.215       59
   35.230       54
   35.245       61
   35.260       50
   35.275       60
   35.290       62
   35.305       73
   35.320       68
   35.335       57
   35.350       55
   35.365       62
   35.380       51
   35.395       54
   35.410       55
   35.425       65
   35.440       66
   35.455       72
   35.470       58
   35.485       74
   35.500       69
   35.515       65
   35.530       80
   35.545       72
   35.560       74
   35.575       70
   35.590       66
   35.605       71
   35.620       71
   35.635       78
   35.650       96
   35.665       88
   35.680       99
   35.695      120
   35.710       90
   35.725       95
   35.740      103
   35.755       93
   35.770       96
   35.785       81
   35.800       92
   35.815       97
   35.830      115
   35.845       96
   35.860       93
   35.875       97
   35.890       83
   35.905       70
   35.920       76
   35.935       75
   35.950       67
   35.965       65
   35.980       52
   35.995       47
   36.010       66
   36.025       44
   36.040       54
   36.055       52
   36.070       54
   36.085       46
   36.100       44
   36.115       38
   36.130       32
   36.145       45
   36.160       50
   36.175       36
   36.190       42
   36.205       48
   36.220       49
   36.235       39
   36.250       49
   36.265       43
   36.280       52
   36.295       47
   36.310       51
   36.325       55
   36.340       53
   36.355       56
   36.370       45
   36.385       48
   36.400       49
   36.415       50
   36.430       58
   36.445       58
   36.460       49
   36.475       44
   36.490       45
   36.505       65
   36.520       60
   36.535       59
   36.550       57
   36.565       65
   36.580       58
   36.595       65
   36.610       59
   36.625       58
   36.640       50
   36.655       47
   36.670       42
   36.685       38
   36.700       45
   36.715       41
   36.730       55
   36.745       53
   36.760       50
   36.775       45
   36.790       49
   36.805       56
   36.820       49
   36.835       48
   36.850       52
   36.865       48
   36.880       48
   36.895       49
   36.910       43
   36.925       42
   36.940       46
   36.955       53
   36.970       46
   36.985       58
   37.000       62
   37.015       77
   37.030       81
   37.045       69
   37.060       77
   37.075       84
   37.090       66
   37.105       66
   37.120       53
   37.135       70
   37.150       55
   37.165       61
   37.180       66
   37.195       65
   37.210       51
   37.225       48
   37.240       70
   37.255       51
   37.270       68
   37.285       57
   37.300       54
   37.315       67
   37.330       75
   37.345       67
   37.360       65
   37.375       64
   37.390       66
   37.405       54
   37.420       55
   37.435       57
   37.450       56
   37.465       68
   37.480       65
   37.495       65
   37.510       65
   37.525       74
   37.540       82
   37.555       65
   37.570       57
   37.585       52
   37.600       61
   37.615       53
   37.630       41
   37.645       37
   37.660       45
   37.675       58
   37.690       54
   37.705       48
   37.720       35
   37.735       32
   37.750       41
   37.765       40
   37.780       46
   37.795       54
   37.810       42
   37.825       38
   37.840       56
   37.855       54
   37.870       55
   37.885       61
   37.900       49
   37.915       52
   37.930       48
   37.945       41
   37.960       42
   37.975       52
   37.990       57
   38.005       42
   38.020       45
   38.035       56
   38.050       58
   38.065       55
   38.080       47
   38.095       46
   38.110       42
   38.125       47
   38.140       58
   38.155       55
   38.170       50
   38.185       48
   38.200       49
   38.215       51
   38.230       51
   38.245       50
   38.260       45
   38.275       41
   38.290       52
   38.305       51
   38.320       49
   38.335       47
   38.350       46
   38.365       39
   38.380       42
   38.395       43
   38.410       47
   38.425       42
   38.440       38
   38.455       45
   38.470       57
   38.485       55
   38.500       51
   38.515       42
   38.530       37
   38.545       45
   38.560       49
   38.575       52
   38.590       59
   38.605       69
   38.620       77
   38.635       74
   38.650       81
   38.665       85
   38.680       72
   38.695       54
   38.710       58
   38.725       55
   38.740       57
   38.755       37
   38.770       42
   38.785       47
   38.800       51
   38.815       59
   38.830       44
   38.845       49
   38.860       40
   38.875       36
   38.890       54
   38.905       47
   38.920       45
   38.935       56
   38.950       62
   38.965       69
   38.980       55
   38.995       55
   39.010       52
   39.025       53
   39.040       60
   39.055       63
   39.070       60
   39.085       59
   39.100       54
   39.115       58
   39.130       64
   39.145       74
   39.160       73
   39.175       69
   39.190       64
   39.205       78
   39.220       61
   39.235       53
   39.250       59
   39.265       52
   39.280       55
   39.295       53
   39.310       48
   39.325       51
   39.340       51
   39.355       41
   39.370       37
   39.385       52
   39.400       46
   39.415       53
   39.430       50
   39.445       49
   39.460       47
   39.475       50
   39.490       42
   39.505       44
   39.520       50
   39.535       42
   39.550       37
   39.565       36
   39.580       41
   39.595       48
   39.610       48
   39.625       55
   39.640       45
   39.655       36
   39.670       39
   39.685       47
   39.700       45
   39.715       39
   39.730       46
   39.745       42
   39.760       44
   39.775       43
   39.790       45
   39.805       43
   39.820       43
   39.835       49
   39.850       49
   39.865       52
   39.880       49
   39.895       56
   39.910       55
   39.925       47
   39.940       40
   39.955       43
   39.970       47
   39.985       55
   40.000       56
   40.015       63
   40.030       54
   40.045       62
   40.060       61
   40.075       57
   40.090       54
   40.105       62
   40.120       68
   40.135       79
   40.150       77
   40.165       79
   40.180       76
   40.195       76
   40.210       75
   40.225       62
   40.240       59
   40.255       58
   40.270       56
   40.285       59
   40.300       56
   40.315       60
   40.330       39
   40.345       41
   40.360       56
   40.375       50
   40.390       43
   40.405       48
   40.420       46
   40.435       49
   40.450       45
   40.465       47
   40.480       60
   40.495       64
   40.510       44
   40.525       43
   40.540       56
   40.555       56
   40.570       52
   40.585       37
   40.600       50
   40.615       54
   40.630       60
   40.645       60
   40.660       46
   40.675       59
   40.690       70
   40.705       56
   40.720       54
   40.735       58
   40.750       62
   40.765       52
   40.780       65
   40.795       55
   40.810       62
   40.825       57
   40.840       63
   40.855       55
   40.870       58
   40.885       64
   40.900       57
   40.915       52
   40.930       51
   40.945       50
   40.960       42
   40.975       46
   40.990       55
   41.005       69
   41.020       71
   41.035       67
   41.050       76
   41.065       80
   41.080       74
   41.095       62
   41.110       68
   41.125       62
   41.140       65
   41.155       56
   41.170       57
   41.185       61
   41.200       60
   41.215       54
   41.230       39
   41.245       34
   41.260       30
   41.275       40
   41.290       57
   41.305       52
   41.320       43
   41.335       42
   41.350       47
   41.365       47
   41.380       55
   41.395       48
   41.410       40
   41.425       34
   41.440       41
   41.455       39
   41.470       38
   41.485       45
   41.500       37
   41.515       44
   41.530       46
   41.545       40
   41.560       38
   41.575       34
   41.590       35
   41.605       39
   41.620       44
   41.635       45
   41.650       37
   41.665       35
   41.680       38
   41.695       34
   41.710       43
   41.725       44
   41.740       41
   41.755       46
   41.770       43
   41.785       54
   41.800       40
   41.815       43
   41.830       34
   41.845       37
   41.860       34
   41.875       37
   41.890       39
   41.905       47
   41.920       37
   41.935       43
   41.950       51
   41.965       52
   41.980       45
   41.995       38
   42.010       40
   42.025       45
   42.040       44
   42.055       48
   42.070       60
   42.085       59
   42.100       64
   42.115       50
   42.130       48
   42.145       50
   42.160       42
   42.175       47
   42.190       43
   42.205       42
   42.220       36
   42.235       41
   42.250       36
   42.265       55
   42.280       50
   42.295       48
   42.310       49
   42.325       45
   42.340       40
   42.355       56
   42.370       53
   42.385       55
   42.400       55
   42.415       52
   42.430       44
   42.445       47
   42.460       49
   42.475       49
   42.490       48
   42.505       52
   42.520       44
   42.535       36
   42.550       52
   42.565       49
   42.580       56
   42.595       47
   42.610       59
   42.625       50
   42.640       50
   42.655       61
   42.670       65
   42.685       78
   42.700       71
   42.715       59
   42.730       66
   42.745       70
   42.760       60
   42.775       58
   42.790       57
   42.805       58
   42.820       54
   42.835       51
   42.850       47
   42.865       43
   42.880       48
   42.895       45
   42.910       43
   42.925       37
   42.940       41
   42.955       28
   42.970       29
   42.985       38
   43.000       42
   43.015       41
   43.030       45
   43.045       35
   43.060       39
   43.075       50
   43.090       52
   43.105       39
   43.120       26
   43.135       35
   43.150       47
   43.165       46
   43.180       28
   43.195       33
   43.210       32
   43.225       30
   43.240       38
   43.255       30
   43.270       33
   43.285       36
   43.300       38
   43.315       36
   43.330       31
   43.345       47
   43.360       46
   43.375       42
   43.390       36
   43.405       44
   43.420       53
   43.435       46
   43.450       45
   43.465       49
   43.480       49
   43.495       46
   43.510       42
   43.525       47
   43.540       49
   43.555       38
   43.570       48
   43.585       48
   43.600       45
   43.615       48
   43.630       47
   43.645       42
   43.660       39
   43.675       46
   43.690       43
   43.705       46
   43.720       45
   43.735       38
   43.750       34
   43.765       33
   43.780       35
   43.795       32
   43.810       34
   43.825       43
   43.840       40
   43.855       41
   43.870       37
   43.885       38
   43.900       41
   43.915       41
   43.930       47
   43.945       49
   43.960       39
   43.975       47
   43.990       47
   44.005       42
   44.020       52
   44.035       45
   44.050       37
   44.065       42
   44.080       44
   44.095       52
   44.110       49
   44.125       43
   44.140       45
   44.155       44
   44.170       41
   44.185       46
   44.200       51
   44.215       49
   44.230       48
   44.245       48
   44.260       45
   44.275       47
   44.290       56
   44.305       42
   44.320       39
   44.335       35
   44.350       39
   44.365       44
   44.380       46
   44.395       45
   44.410       59
   44.425       55
   44.440       49
   44.455       63
   44.470       54
   44.485       58
   44.500       66
   44.515       57
   44.530       58
   44.545       72
   44.560       52
   44.575       51
   44.590       67
   44.605       45
   44.620       56
   44.635       45
   44.650       48
   44.665       40
   44.680       43
   44.695       38
   44.710       41
   44.725       43
   44.740       35
   44.755       48
   44.770       46
   44.785       56
   44.800       60
   44.815       55
   44.830       44
   44.845       47
   44.860       39
   44.875       44
   44.890       41
   44.905       52
   44.920       45
   44.935       45
   44.950       40
   44.965       47
   44.980       50
   44.995       41
   45.010       45
   45.025       42
   45.040       54
   45.055       54
   45.070       56
   45.085       60
   45.100       60
   45.115       72
   45.130       59
   45.145       55
   45.160       42
   45.175       56
   45.190       56
   45.205       52
   45.220       46
   45.235       47
   45.250       47
   45.265       63
   45.280       60
   45.295       68
   45.310       62
   45.325       58
   45.340       57
   45.355       72
   45.370       64
   45.385       56
   45.400       55
   45.415       60
   45.430       61
   45.445       49
   45.460       61
   45.475       63
   45.490       59
   45.505       60
   45.520       61
   45.535       43
   45.550       44
   45.565       52
   45.580       41
   45.595       51
   45.610       52
   45.625       47
   45.640       58
   45.655       59
   45.670       50
   45.685       52
   45.700       41
   45.715       48
   45.730       46
   45.745       48
   45.760       49
   45.775       57
   45.790       42
   45.805       41
   45.820       34
   45.835       37
   45.850       48
   45.865       49
   45.880       62
   45.895       55
   45.910       55
   45.925       46
   45.940       40
   45.955       47
   45.970       43
   45.985       44
