    4.000       53
    4.015       59
    4.030       50
    4.045       57
    4.060       45
    4.075       49
    4.090       63
    4.105       48
    4.120       42
    4.135       46
    4.150       42
    4.165       51
    4.180       56
    4.195       39
    4.210       38
    4.225       51
    4.240       46
    4.255       45
    4.270       47
    4.285       41
    4.300       45
    4.315       34
    4.330       45
    4.345       51
    4.360       49
    4.375       45
    4.390       40
    4.405       54
    4.420       47
    4.435       45
    4.450       48
    4.465       48
    4.480       61
    4.495       54
    4.510       45
    4.525       49
    4.540       51
    4.555       55
    4.570       41
    4.585       41
    4.600       48
    4.615       47
    4.630       41
    4.645       55
    4.660       49
    4.675       53
    4.690       54
    4.705       45
    4.720       52
    4.735       50
    4.750       42
    4.765       43
    4.780       38
    4.795       43
    4.810       47
    4.825       48
    4.840       56
    4.855       53
    4.870       48
    4.885       52
    4.900       41
    4.915       34
    4.930       45
    4.945       53
    4.960       42
    4.975       45
    4.990       46
    5.005       44
    5.020       52
    5.035       42
    5.050       42
    5.065       40
    5.080       46
    5.095       45
    5.110       44
    5.125       40
    5.140       35
    5.155       41
    5.170       50
    5.185       49
    5.200       45
    5.215       41
    5.230       42
    5.245       44
    5.260       43
    5.275       42
    5.290       38
    5.305       34
    5.320       33
    5.335       37
    5.350       41
    5.365       43
    5.380       45
    5.395       48
    5.410       47
    5.425       44
    5.440       50
    5.455       50
    5.470       38
    5.485       42
    5.500       43
    5.515       44
    5.530       38
    5.545       41
    5.560       41
    5.575       47
    5.590       51
    5.605       42
    5.620       46
    5.635       51
    5.650       45
    5.665       37
    5.680       37
    5.695       41
    5.710       37
    5.725       42
    5.740       48
    5.755       51
    5.770       51
    5.785       51
    5.800       47
    5.815       45
    5.830       58
    5.845       53
    5.860       47
    5.875       48
    5.890       41
    5.905       52
    5.920       50
    5.935       39
    5.950       47
    5.965       48
    5.980       40
    5.995       41
    6.010       53
    6.025       51
    6.040       41
    6.055       49
    6.070       43
    6.085       47
    6.100       47
    6.115       38
    6.130       38
    6.145       37
    6.160       50
    6.175       43
    6.190       39
    6.205       43
    6.220       52
    6.235       56
    6.250       59
    6.265       51
    6.280       49
    6.295       52
    6.310       61
    6.325       68
    6.340       61
    6.355       75
    6.370       78
    6.385       77
    6.400       70
    6.415       96
    6.430      101
    6.445       95
    6.460      101
    6.475      107
    6.490      108
    6.505      130
    6.520      142
    6.535      147
    6.550      153
    6.565      184
    6.580      218
    6.595      231
    6.610      258
    6.625      318
    6.640      387
    6.655      363
    6.670      303
    6.685      337
    6.700      337
    6.715      237
    6.730      147
    6.745       95
    6.760       64
    6.775       41
    6.790       46
    6.805       38
    6.820       36
    6.835       42
    6.850       48
    6.865       44
    6.880       56
    6.895       48
    6.910       48
    6.925       58
    6.940       51
    6.955       49
    6.970       50
    6.985       37
    7.000       54
    7.015       66
    7.030       48
    7.045       53
    7.060       60
    7.075       53
    7.090       66
    7.105       59
    7.120       53
    7.135       57
    7.150       63
    7.165       69
    7.180       81
    7.195       95
    7.210      118
    7.225      118
    7.240       95
    7.255       88
    7.270       58
    7.285       50
    7.300       40
    7.315       35
    7.330       37
    7.345       30
    7.360       37
    7.375       34
    7.390       43
    7.405       42
    7.420       43
    7.435       47
    7.450       45
    7.465       36
    7.480       44
    7.495       41
    7.510       45
    7.525       42
    7.540       49
    7.555       41
    7.570       47
    7.585       46
    7.600       35
    7.615       34
    7.630       43
    7.645       36
    7.660       48
    7.675       40
    7.690       50
    7.705       50
    7.720       41
    7.735       41
    7.750       46
    7.765       44
    7.780       45
    7.795       44
    7.810       40
    7.825       43
    7.840       41
    7.855       36
    7.870       51
    7.885       43
    7.900       37
    7.915       44
    7.930       42
    7.945       30
    7.960       43
    7.975       39
    7.990       36
    8.005       37
    8.020       37
    8.035       33
    8.050       31
    8.065       37
    8.080       37
    8.095       37
    8.110       36
    8.125       34
    8.140       32
    8.155       37
    8.170       43
    8.185       47
    8.200       46
    8.215       38
    8.230       30
    8.245       35
    8.260       37
    8.275       42
    8.290       38
    8.305       33
    8.320       39
    8.335       43
    8.350       40
    8.365       48
    8.380       38
    8.395       38
    8.410       34
    8.425       40
    8.440       40
    8.455       40
    8.470       48
    8.485       46
    8.500       47
    8.515       39
    8.530       35
    8.545       49
    8.560       51
    8.575       47
    8.590       47
    8.605       57
    8.620       63
    8.635       57
    8.650       42
    8.665       42
    8.680       48
    8.695       32
    8.710       40
    8.725       32
    8.740       40
    8.755       42
    8.770       42
    8.785       36
    8.800       33
    8.815       48
    8.830       48
    8.845       39
    8.860       39
    8.875       42
    8.890       39
    8.905       42
    8.920       40
    8.935       44
    8.950       37
    8.965       48
    8.980       50
    8.995       45
    9.010       40
    9.025       41
    9.040       42
    9.055       40
    9.070       42
    9.085       34
    9.100       42
    9.115       36
    9.130       43
    9.145       51
    9.160       44
    9.175       54
    9.190       43
    9.205       36
    9.220       48
    9.235       45
    9.250       41
    9.265       30
    9.280       35
    9.295       35
    9.310       39
    9.325       45
    9.340       42
    9.355       45
    9.370       42
    9.385       47
    9.400       38
    9.415       39
    9.430       36
    9.445       44
    9.460       50
    9.475       51
    9.490       45
    9.505       39
    9.520       41
    9.535       50
    9.550       45
    9.565       45
    9.580       47
    9.595       45
    9.610       39
    9.625       52
    9.640       36
    9.655       39
    9.670       45
    9.685       50
    9.700       37
    9.715       47
    9.730       48
    9.745       40
    9.760       43
    9.775       38
    9.790       46
    9.805       32
    9.820       49
    9.835       65
    9.850       58
    9.865       66
    9.880       54
    9.895       50
    9.910       51
    9.925       47
    9.940       40
    9.955       39
    9.970       40
    9.985       47
   10.000       39
   10.015       31
   10.030       40
   10.045       41
   10.060       44
   10.075       38
   10.090       39
   10.105       42
   10.120       44
   10.135       46
   10.150       43
   10.165       59
   10.180       47
   10.195       38
   10.210       58
   10.225       62
   10.240       60
   10.255       43
   10.270       50
   10.285       45
   10.300       45
   10.315       43
   10.330       44
   10.345       43
   10.360       56
   10.375       52
   10.390       52
   10.405       63
   10.420       65
   10.435       73
   10.450       79
   10.465       67
   10.480       72
   10.495       74
   10.510       84
   10.525      107
   10.540      105
   10.555      104
   10.570       74
   10.585       57
   10.600       54
   10.615       42
   10.630       46
   10.645       58
   10.660       52
   10.675       50
   10.690       59
   10.705       51
   10.720       71
   10.735       77
   10.750       90
   10.765       92
   10.780       93
   10.795      113
   10.810      119
   10.825      127
   10.840      144
   10.855      158
   10.870      140
   10.885      161
   10.900      212
   10.915      239
   10.930      237
   10.945      178
   10.960      127
   10.975       85
   10.990       62
   11.005       53
   11.020       43
   11.035       39
   11.050       41
   11.065       41
   11.080       49
   11.095       48
   11.110       50
   11.125       51
   11.140       53
   11.155       51
   11.170       57
   11.185       54
   11.200       53
   11.215       50
   11.230       57
   11.245       61
   11.260       69
   11.275       84
   11.290       94
   11.305       88
   11.320       60
   11.335       47
   11.350       47
   11.365       47
   11.380       37
   11.395       49
   11.410       48
   11.425       40
   11.440       53
   11.455       54
   11.470       55
   11.485       59
   11.500       74
   11.515       72
   11.530       58
   11.545       46
   11.560       31
   11.575       40
   11.590       47
   11.605       57
   11.620       46
   11.635       40
   11.650       37
   11.665       48
   11.680       42
   11.695       36
   11.710       36
   11.725       42
   11.740       41
   11.755       50
   11.770       61
   11.785       46
   11.800       67
   11.815       67
   11.830       63
   11.845       61
   11.860       67
   11.875       67
   11.890       49
   11.905       66
   11.920       55
   11.935       62
   11.950       71
   11.965       71
   11.980       47
   11.995       47
   12.010       48
   12.025       48
   12.040       47
   12.055       48
   12.070       51
   12.085       64
   12.100       67
   12.115       72
   12.130       71
   12.145       48
   12.160       51
   12.175       51
   12.190       53
   12.205       46
   12.220       32
   12.235       25
   12.250       39
   12.265       42
   12.280       37
   12.295       37
   12.310       39
   12.325       37
   12.340       43
   12.355       39
   12.370       35
   12.385       39
   12.400       40
   12.415       33
   12.430       39
   12.445       38
   12.460       42
   12.475       40
   12.490       44
   12.505       46
   12.520       48
   12.535       40
   12.550       41
   12.565       41
   12.580       57
   12.595       59
   12.610       63
   12.625       77
   12.640       95
   12.655      107
   12.670      110
   12.685      136
   12.700      159
   12.715      195
   12.730      247
   12.745      304
   12.760      282
   12.775      236
   12.790      204
   12.805      191
   12.820      184
   12.835      166
   12.850      149
   12.865      132
   12.880       93
   12.895       75
   12.910       54
   12.925       46
   12.940       57
   12.955       50
   12.970       67
   12.985       65
   13.000       76
   13.015       73
   13.030       74
   13.045       94
   13.060      118
   13.075      132
   13.090      156
   13.105      189
   13.120      245
   13.135      278
   13.150      260
   13.165      207
   13.180      179
   13.195      150
   13.210      145
   13.225      201
   13.240      246
   13.255      263
   13.270      325
   13.285      369
   13.300      452
   13.315      500
   13.330      557
   13.345      506
   13.360      440
   13.375      448
   13.390      509
   13.405      726
   13.420      909
   13.435     1089
   13.450      873
   13.465      546
   13.480      299
   13.495      175
   13.510      122
   13.525       98
   13.540       93
   13.555      101
   13.570      106
   13.585      114
   13.600      125
   13.615      154
   13.630      163
   13.645      244
   13.660      258
   13.675      280
   13.690      283
   13.705      285
   13.720      233
   13.735      175
   13.750      111
   13.765       86
   13.780       72
   13.795       56
   13.810       54
   13.825       57
   13.840       54
   13.855       56
   13.870       57
   13.885       61
   13.900       71
   13.915       73
   13.930       70
   13.945       78
   13.960       90
   13.975       79
   13.990       71
   14.005       44
   14.020       43
   14.035       36
   14.050       29
   14.065       40
   14.080       36
   14.095       39
   14.110       37
   14.125       40
   14.140       39
   14.155       41
   14.170       35
   14.185       40
   14.200       42
   14.215       55
   14.230       48
   14.245       59
   14.260       72
   14.275       78
   14.290       92
   14.305      106
   14.320      136
   14.335      150
   14.350      152
   14.365      135
   14.380      134
   14.395      142
   14.410      151
   14.425      173
   14.440      141
   14.455      127
   14.470      136
   14.485      151
   14.500      149
   14.515      133
   14.530      133
   14.545      144
   14.560      168
   14.575      175
   14.590      234
   14.605      259
   14.620      350
   14.635      330
   14.650      246
   14.665      158
   14.680      100
   14.695       63
   14.710       54
   14.725       38
   14.740       39
   14.755       49
   14.770       47
   14.785       32
   14.800       44
   14.815       38
   14.830       45
   14.845       46
   14.860       38
   14.875       40
   14.890       41
   14.905       32
   14.920       47
   14.935       43
   14.950       42
   14.965       49
   14.980       59
   14.995       60
   15.010       78
   15.025       84
   15.040       88
   15.055      110
   15.070      143
   15.085      162
   15.100      195
   15.115      255
   15.130      314
   15.145      353
   15.160      404
   15.175      477
   15.190      549
   15.205      719
   15.220      790
   15.235      681
   15.250      506
   15.265      313
   15.280      217
   15.295      179
   15.310      147
   15.325      139
   15.340      112
   15.355      112
   15.370      114
   15.385      121
   15.400      152
   15.415      171
   15.430      171
   15.445      192
   15.460      174
   15.475      155
   15.490      165
   15.505      162
   15.520      154
   15.535      165
   15.550      157
   15.565      138
   15.580      154
   15.595      173
   15.610      184
   15.625      206
   15.640      227
   15.655      240
   15.670      236
   15.685      282
   15.700      327
   15.715      403
   15.730      348
   15.745      293
   15.760      201
   15.775      141
   15.790      124
   15.805      143
   15.820      172
   15.835      178
   15.850      204
   15.865      208
   15.880      223
   15.895      293
   15.910      259
   15.925      271
   15.940      227
   15.955      159
   15.970      106
   15.985       66
   16.000       65
   16.015       62
   16.030       50
   16.045       46
   16.060       49
   16.075       49
   16.090       59
   16.105       61
   16.120       66
   16.135       74
   16.150       93
   16.165      102
   16.180      128
   16.195      172
   16.210      216
   16.225      252
   16.240      282
   16.255      290
   16.270      300
   16.285      253
   16.300      231
   16.315      174
   16.330      107
   16.345       91
   16.360       63
   16.375       87
   16.390      105
   16.405      109
   16.420      132
   16.435      126
   16.450      152
   16.465      173
   16.480      163
   16.495      187
   16.510      217
   16.525      290
   16.540      331
   16.555      449
   16.570      516
   16.585      436
   16.600      341
   16.615      285
   16.630      257
   16.645      243
   16.660      302
   16.675      349
   16.690      371
   16.705      373
   16.720      346
   16.735      311
   16.750      294
   16.765      256
   16.780      229
   16.795      235
   16.810      271
   16.825      270
   16.840      303
   16.855      293
   16.870      304
   16.885      313
   16.900      312
   16.915      307
   16.930      330
   16.945      305
   16.960      267
   16.975      221
   16.990      147
   17.005      100
   17.020       96
   17.035       84
   17.050      102
   17.065      109
   17.080      134
   17.095      167
   17.110      188
   17.125      221
   17.140      262
   17.155      263
   17.170      235
   17.185      192
   17.200      186
   17.215      155
   17.230      144
   17.245      141
   17.260      152
   17.275      202
   17.290      260
   17.305      308
   17.320      372
   17.335      426
   17.350      465
   17.365      474
   17.380      386
   17.395      281
   17.410      201
   17.425      150
   17.440      154
   17.455      129
   17.470      126
   17.485      116
   17.500      101
   17.515       95
   17.530       93
   17.545      106
   17.560      123
   17.575      129
   17.590      189
   17.605      222
   17.620      279
   17.635      268
   17.650      217
   17.665      157
   17.680      113
   17.695       91
   17.710       69
   17.725       76
   17.740       74
   17.755       81
   17.770       92
   17.785      101
   17.800      101
   17.815       99
   17.830       76
   17.845       77
   17.860       88
   17.875       95
   17.890      100
   17.905      103
   17.920       83
   17.935       68
   17.950       72
   17.965       70
   17.980       63
   17.995       62
   18.010       53
   18.025       46
   18.040       33
   18.055       45
   18.070       45
   18.085       40
   18.100       41
   18.115       45
   18.130       35
   18.145       46
   18.160       41
   18.175       44
   18.190       40
   18.205       42
   18.220       38
   18.235       33
   18.250       37
   18.265       40
   18.280       51
   18.295       62
   18.310       66
   18.325       79
   18.340       85
   18.355      112
   18.370      128
   18.385      128
   18.400      144
   18.415      176
   18.430      199
   18.445      214
   18.460      209
   18.475      173
   18.490      146
   18.505      106
   18.520       84
   18.535       72
   18.550       59
   18.565       53
   18.580       51
   18.595       51
   18.610       48
   18.625       61
   18.640       70
   18.655       80
   18.670       75
   18.685       94
   18.700      100
   18.715      133
   18.730      155
   18.745      139
   18.760      145
   18.775      148
   18.790      140
   18.805      155
   18.820      161
   18.835      133
   18.850      104
   18.865       83
   18.880       65
   18.895       60
   18.910       58
   18.925       60
   18.940       47
   18.955       54
   18.970       52
   18.985       63
   19.000       68
   19.015       82
   19.030       82
   19.045      105
   19.060       86
   19.075       75
   19.090       70
   19.105       76
   19.120       74
   19.135       92
   19.150      101
   19.165       76
   19.180       71
   19.195       59
   19.210       38
   19.225       42
   19.240       47
   19.255       42
   19.270       41
   19.285       42
   19.300       35
   19.315       43
   19.330       36
   19.345       32
   19.360       41
   19.375       42
   19.390       38
   19.405       39
   19.420       43
   19.435       36
   19.450       46
   19.465       51
   19.480       55
   19.495       58
   19.510       63
   19.525       84
   19.540       91
   19.555       91
   19.570       75
   19.585       77
   19.600       62
   19.615       64
   19.630       54
   19.645       70
   19.660       63
   19.675       63
   19.690       64
   19.705       94
   19.720      118
   19.735      133
   19.750      143
   19.765      160
   19.780      146
   19.795      151
   19.810      143
   19.825      128
   19.840       90
   19.855       79
   19.870       81
   19.885       73
   19.900       67
   19.915       83
   19.930       88
   19.945      123
   19.960      159
   19.975      199
   19.990      239
   20.005      303
   20.020      382
   20.035      477
   20.050      562
   20.065      535
   20.080      424
   20.095      334
   20.110      269
   20.125      215
   20.140      213
   20.155      219
   20.170      245
   20.185      257
   20.200      243
   20.215      206
   20.230      172
   20.245      141
   20.260      101
   20.275       82
   20.290       59
   20.305       60
   20.320       60
   20.335       65
   20.350       75
   20.365       85
   20.380       76
   20.395       84
   20.410       81
   20.425       75
   20.440       69
   20.455       54
   20.470       50
   20.485       55
   20.500       38
   20.515       35
   20.530       36
   20.545       32
   20.560       36
   20.575       35
   20.590       35
   20.605       47
   20.620       52
   20.635       44
   20.650       44
   20.665       51
   20.680       68
   20.695       65
   20.710       83
   20.725       85
   20.740       80
   20.755       73
   20.770       61
   20.785       70
   20.800       50
   20.815       46
   20.830       74
   20.845       63
   20.860       70
   20.875       75
   20.890      112
   20.905      130
   20.920      161
   20.935      167
   20.950      169
   20.965      171
   20.980      171
   20.995      162
   21.010      171
   21.025      202
   21.040      180
   21.055      138
   21.070      114
   21.085       83
   21.100       71
   21.115       56
   21.130       54
   21.145       35
   21.160       32
   21.175       41
   21.190       37
   21.205       47
   21.220       38
   21.235       47
   21.250       53
   21.265       55
   21.280       51
   21.295       63
   21.310       64
   21.325       58
   21.340       61
   21.355       71
   21.370       79
   21.385       91
   21.400       88
   21.415       81
   21.430       68
   21.445       68
   21.460       65
   21.475       50
   21.490       26
   21.505       31
   21.520       39
   21.535       32
   21.550       34
   21.565       23
   21.580       37
   21.595       44
   21.610       38
   21.625       41
   21.640       45
   21.655       55
   21.670       58
   21.685       67
   21.700       80
   21.715       97
   21.730      108
   21.745      144
   21.760      187
   21.775      169
   21.790      141
   21.805      133
   21.820      115
   21.835      129
   21.850      108
   21.865      111
   21.880      150
   21.895      159
   21.910      220
   21.925      313
   21.940      424
   21.955      491
   21.970      439
   21.985      361
   22.000      277
   22.015      173
   22.030      132
   22.045      120
   22.060      111
   22.075       95
   22.090       78
   22.105       95
   22.120       73
   22.135       70
   22.150       65
   22.165       59
   22.180       46
   22.195       53
   22.210       43
   22.225       35
   22.240       37
   22.255       40
   22.270       45
   22.285       49
   22.300       56
   22.315       45
   22.330       45
   22.345       36
   22.360       54
   22.375       60
   22.390       52
   22.405       52
   22.420       51
   22.435       67
   22.450       62
   22.465       91
   22.480       94
   22.495       95
   22.510       84
   22.525       82
   22.540       90
   22.555       97
   22.570      108
   22.585       86
   22.600       76
   22.615       57
   22.630       59
   22.645       55
   22.660       63
   22.675       71
   22.690       76
   22.705       95
   22.720       93
   22.735       95
   22.750       99
   22.765      114
   22.780      136
   22.795      147
   22.810      146
   22.825      120
   22.840      100
   22.855       86
   22.870       65
   22.885       88
   22.900       92
   22.915       83
   22.930      107
   22.945      127
   22.960      158
   22.975      157
   22.990      161
   23.005      156
   23.020      150
   23.035      139
   23.050      124
   23.065      107
   23.080       98
   23.095       65
   23.110       56
   23.125       52
   23.140       51
   23.155       48
   23.170       52
   23.185       49
   23.200       54
   23.215       66
   23.230       68
   23.245       71
   23.260       71
   23.275       76
   23.290       70
   23.305       71
   23.320       80
   23.335       82
   23.350       80
   23.365       97
   23.380      108
   23.395      104
   23.410       78
   23.425       61
   23.440       63
   23.455       47
   23.470       48
   23.485       52
   23.500       51
   23.515       50
   23.530       57
   23.545       59
   23.560       59
   23.575       61
   23.590       51
   23.605       56
   23.620       51
   23.635       49
   23.650       52
   23.665       55
   23.680       59
   23.695       57
   23.710       69
   23.725       77
   23.740       77
   23.755       61
   23.770       63
   23.785       49
   23.800       62
   23.815       56
   23.830       56
   23.845       52
   23.860       54
   23.875       54
   23.890       60
   23.905       52
   23.920       38
   23.935       54
   23.950       62
   23.965       62
   23.980       56
   23.995       53
   24.010       76
   24.025       69
   24.040       57
   24.055       61
   24.070       65
   24.085       63
   24.100       63
   24.115       66
   24.130       78
   24.145       84
   24.160       98
   24.175      106
   24.190       98
   24.205       70
   24.220       54
   24.235       58
   24.250       45
   24.265       55
   24.280       45
   24.295       37
   24.310       44
   24.325       52
   24.340       54
   24.355       53
   24.370       69
   24.385       78
   24.400       90
   24.415      101
   24.430       93
   24.445       75
   24.460       64
   24.475       50
   24.490       60
   24.505       38
   24.520       35
   24.535       31
   24.550       34
   24.565       47
   24.580       51
   24.595       42
   24.610       43
   24.625       44
   24.640       51
   24.655       37
   24.670       48
   24.685       47
   24.700       52
   24.715       61
   24.730       72
   24.745       77
   24.760       84
   24.775       79
   24.790       91
   24.805       76
   24.820       78
   24.835       68
   24.850       61
   24.865       70
   24.880       47
   24.895       50
   24.910       51
   24.925       58
   24.940       60
   24.955       60
   24.970       48
   24.985       38
   25.000       48
   25.015       42
   25.030       42
   25.045       40
   25.060       45
   25.075       50
   25.090       48
   25.105       69
   25.120      102
   25.135      110
   25.150      121
   25.165      123
   25.180      101
   25.195       86
   25.210       70
   25.225       63
   25.240       65
   25.255       57
   25.270       62
   25.285       51
   25.300       57
   25.315       52
   25.330       62
   25.345       64
   25.360       66
   25.375       87
   25.390       71
   25.405       72
   25.420       59
   25.435       48
   25.450       44
   25.465       50
   25.480       42
   25.495       42
   25.510       57
   25.525       64
   25.540       67
   25.555       87
   25.570      101
   25.585      113
   25.600      116
   25.615      100
   25.630       74
   25.645       74
   25.660       52
   25.675       50
   25.690       61
   25.705       66
   25.720       68
   25.735       57
   25.750       81
   25.765       74
   25.780       99
   25.795      121
   25.810      152
   25.825      167
   25.840      201
   25.855      197
   25.870      173
   25.885      160
   25.900      128
   25.915       88
   25.930       72
   25.945       70
   25.960       86
   25.975       89
   25.990       94
   26.005       99
   26.020      125
   26.035      143
   26.050      144
   26.065      172
   26.080      158
   26.095      129
   26.110       85
   26.125       97
   26.140       92
   26.155       76
   26.170       73
   26.185       62
   26.200       70
   26.215       61
   26.230       65
   26.245       62
   26.260       64
   26.275       69
   26.290       79
   26.305       76
   26.320       83
   26.335      113
   26.350      127
   26.365      136
   26.380      106
   26.395       91
   26.410       75
   26.425       63
   26.440       61
   26.455       49
   26.470       54
   26.485       66
   26.500       63
   26.515       74
   26.530       89
   26.545       99
   26.560       89
   26.575       70
   26.590       56
   26.605       50
   26.620       52
   26.635       58
   26.650       38
   26.665       46
   26.680       57
   26.695       44
   26.710       45
   26.725       51
   26.740       46
   26.755       57
   26.770       59
   26.785       62
   26.800       58
   26.815       66
   26.830       94
   26.845       83
   26.860       82
   26.875       67
   26.890       73
   26.905       54
   26.920       49
   26.935       43
   26.950       49
   26.965       45
   26.980       55
   26.995       62
   27.010       70
   27.025       97
   27.040      115
   27.055      114
   27.070      161
   27.085      151
   27.100      137
   27.115      124
   27.130      136
   27.145      151
   27.160      147
   27.175      155
   27.190      146
   27.205       96
   27.220       68
   27.235       64
   27.250       67
   27.265       63
   27.280       66
   27.295       64
   27.310       58
   27.325       59
   27.340       61
   27.355       76
   27.370       69
   27.385       64
   27.400       63
   27.415       80
   27.430       80
   27.445       67
   27.460       70
   27.475       75
   27.490       67
   27.505       73
   27.520       68
   27.535       64
   27.550       74
   27.565       75
   27.580       68
   27.595       95
   27.610       98
   27.625       97
   27.640       89
   27.655       92
   27.670      106
   27.685      106
   27.700      126
   27.715      132
   27.730      144
   27.745      154
   27.760      174
   27.775      213
   27.790      243
   27.805      229
   27.820      203
   27.835      171
   27.850      138
   27.865      140
   27.880      117
   27.895      101
   27.910      103
   27.925       69
   27.940       78
   27.955       78
   27.970       89
   27.985       82
   28.000       73
   28.015       86
   28.030      103
   28.045      111
   28.060      111
   28.075      124
   28.090      124
   28.105      118
   28.120      108
   28.135      103
   28.150       98
   28.165       78
   28.180       89
   28.195       75
   28.210       75
   28.225       74
   28.240       60
   28.255       64
   28.270       72
   28.285       71
   28.300       65
   28.315       69
   28.330       70
   28.345       72
   28.360       64
   28.375       72
   28.390       79
   28.405       82
   28.420       80
   28.435       98
   28.450      108
   28.465      102
   28.480       95
   28.495       88
   28.510       96
   28.525       88
   28.540      102
   28.555       87
   28.570       92
   28.585       84
   28.600       95
   28.615       91
   28.630       82
   28.645       77
   28.660       69
   28.675       59
   28.690       47
   28.705       44
   28.720       47
   28.735       45
   28.750       53
   28.765       46
   28.780       48
   28.795       50
   28.810       51
   28.825       68
   28.840       77
   28.855       78
   28.870       74
   28.885       64
   28.900       59
   28.915       63
   28.930       52
   28.945       48
   28.960       55
   28.975       56
   28.990       52
   29.005       60
   29.020       64
   29.035       81
   29.050       75
   29.065       77
   29.080       89
   29.095       88
   29.110       98
   29.125      103
   29.140       96
   29.155       94
   29.170       89
   29.185       87
   29.200      103
   29.215      126
   29.230      130
   29.245      148
   29.260      139
   29.275      132
   29.290      119
   29.305      101
   29.320       90
   29.335       92
   29.350       86
   29.365       79
   29.380       73
   29.395       78
   29.410       76
   29.425       68
   29.440       86
   29.455       82
   29.470       68
   29.485       70
   29.500       64
   29.515       57
   29.530       57
   29.545       63
   29.560       58
   29.575       54
   29.590       54
   29.605       45
   29.620       60
   29.635       62
   29.650       48
   29.665       56
   29.680       64
   29.695       67
   29.710       72
   29.725       91
   29.740      103
   29.755      106
   29.770       98
   29.785      112
   29.800      109
   29.815       90
   29.830       87
   29.845      108
   29.860      104
   29.875      124
   29.890      141
   29.905      141
   29.920      124
   29.935      121
   29.950       94
   29.965       95
   29.980       81
   29.995       77
   30.010       72
   30.025       60
   30.040       60
   30.055       70
   30.070       57
   30.085       63
   30.100       60
   30.115       58
   30.130       46
   30.145       41
   30.160       39
   30.175       40
   30.190       48
   30.205       49
   30.220       52
   30.235       33
   30.250       40
   30.265       43
   30.280       38
   30.295       33
   30.310       43
   30.325       35
   30.340       44
   30.355       46
   30.370       47
   30.385       51
   30.400       42
   30.415       43
   30.430       39
   30.445       44
   30.460       52
   30.475       58
   30.490       56
   30.505       48
   30.520       58
   30.535       52
   30.550       45
   30.565       44
   30.580       42
   30.595       48
   30.610       40
   30.625       38
   30.640       49
   30.655       59
   30.670       59
   30.685       64
   30.700       60
   30.715       67
   30.730       96
   30.745      103
   30.760       95
   30.775       98
   30.790      100
   30.805       97
   30.820      119
   30.835      112
   30.850       91
   30.865      103
   30.880       91
   30.895       92
   30.910       80
   30.925       77
   30.940       61
   30.955       37
   30.970       58
   30.985       50
   31.000       56
   31.015       57
   31.030       57
   31.045       58
   31.060       48
   31.075       66
   31.090       75
   31.105       70
   31.120       76
   31.135       88
   31.150       90
   31.165      102
   31.180      112
   31.195      109
   31.210      102
   31.225       93
   31.240       95
   31.255       99
   31.270       80
   31.285       57
   31.300       52
   31.315       62
   31.330       63
   31.345       66
   31.360       63
   31.375       59
   31.390       59
   31.405       74
   31.420       74
   31.435       70
   31.450       78
   31.465       72
   31.480       77
   31.495       78
   31.510       70
   31.525       88
   31.540       84
   31.555       80
   31.570       66
   31.585       74
   31.600       57
   31.615       69
   31.630       80
   31.645       77
   31.660       69
   31.675       72
   31.690       63
   31.705       67
   31.720       73
   31.735       85
   31.750       89
   31.765       96
   31.780      106
   31.795       96
   31.810       97
   31.825      107
   31.840       83
   31.855       77
   31.870       77
   31.885       70
   31.900       91
   31.915       92
   31.930       99
   31.945      110
   31.960      105
   31.975      101
   31.990      107
   32.005       98
   32.020       83
   32.035       81
   32.050       87
   32.065       96
   32.080       97
   32.095      104
   32.110       85
   32.125       99
   32.140      103
   32.155       92
   32.170       83
   32.185       86
   32.200       83
   32.215       64
   32.230       66
   32.245       71
   32.260       59
   32.275       67
   32.290       79
   32.305       89
   32.320       93
   32.335       89
   32.350       79
   32.365       84
   32.380       77
   32.395       64
   32.410       66
   32.425       66
   32.440       48
   32.455       50
   32.470       55
   32.485       52
   32.500       57
   32.515       57
   32.530       60
   32.545       56
   32.560       65
   32.575       62
   32.590       54
   32.605       56
   32.620       71
   32.635       69
   32.650       62
   32.665       57
   32.680       58
   32.695       45
   32.710       46
   32.725       40
   32.740       37
   32.755       48
   32.770       43
   32.785       33
   32.800       43
   32.815       45
   32.830       44
   32.845       50
   32.860       62
   32.875       45
   32.890       47
   32.905       35
   32.920       40
   32.935       39
   32.950       40
   32.965       44
   32.980       49
   32.995       52
   33.010       53
   33.025       42
   33.040       58
   33.055       59
   33.070       55
   33.085       54
   33.100       64
   33.115       71
   33.130       67
   33.145       86
   33.160      103
   33.175       89
   33.190       84
   33.205       74
   33.220       75
   33.235       74
   33.250       68
   33.265       59
   33.280       62
   33.295       53
   33.310       50
   33.325       63
   33.340       52
   33.355       53
   33.370       57
   33.385       62
   33.400       53
   33.415       56
   33.430       59
   33.445       48
   33.460       57
   33.475       59
   33.490       65
   33.505       61
   33.520       48
   33.535       64
   33.550       58
   33.565       57
   33.580       62
   33.595       67
   33.610       67
   33.625       72
   33.640       75
   33.655       93
   33.670       89
   33.685      101
   33.700      102
   33.715      117
   33.730      137
   33.745      126
   33.760      119
   33.775      113
   33.790      101
   33.805       84
   33.820       82
   33.835       88
   33.850       99
   33.865       79
   33.880       81
   33.895       87
   33.910       80
   33.925       79
   33.940       79
   33.955       75
   33.970       78
   33.985       73
   34.000       77
   34.015       86
   34.030      112
   34.045      113
   34.060       98
   34.075       93
   34.090       90
   34.105       80
   34.120       61
   34.135       57
   34.150       66
   34.165       61
   34.180       70
   34.195       65
   34.210       71
   34.225       61
   34.240       62
   34.255       83
   34.270       96
   34.285       88
   34.300       78
   34.315       86
   34.330       81
   34.345       82
   34.360       67
   34.375       62
   34.390       65
   34.405       64
   34.420       62
   34.435       54
   34.450       51
   34.465       47
   34.480       39
   34.495       41
   34.510       53
   34.525       40
   34.540       47
   34.555       44
   34.570       36
   34.585       47
   34.600       50
   34.615       52
   34.630       48
   34.645       50
   34.660       62
   34.675       60
   34.690       57
   34.705       69
   34.720       78
   34.735       73
   34.750       73
   34.765       70
   34.780       76
   34.795       72
   34.810       64
   34.825       54
   34.840       53
   34.855       47
   34.870       39
   34.885       34
   34.900       44
   34.915       40
   34.930       42
   34.945       41
   34.960       49
   34.975       49
   34.990       53
   35.005       62
   35.020       63
   35.035       54
   35.050       50
   35.065       57
   35.080       60
   35.095       55
   35.110       50
   35.125       51
   35.140       47
   35.155       51
   35.170       49
   35.185       64
   35.200       61
   35.215       58
   35.230       58
   35.245       61
   35.260       63
   35.275       65
   35.290       57
   35.305       68
   35.320       65
   35.335       63
   35.350       63
   35.365       57
   35.380       58
   35.395       60
   35.410       49
   35.425       63
   35.440       57
   35.455       65
   35.470       57
   35.485       67
   35.500       79
   35.515       68
   35.530       59
   35.545       61
   35.560       70
   35.575       68
   35.590       72
   35.605       85
   35.620       78
   35.635       84
   35.650       98
   35.665       91
   35.680       90
   35.695       95
   35.710       98
   35.725       72
   35.740       85
   35.755       89
   35.770      107
   35.785       94
   35.800      116
   35.815      106
   35.830      126
   35.845      112
   35.860       99
   35.875       78
   35.890       64
   35.905       65
   35.920       64
   35.935       73
   35.950       55
   35.965       53
   35.980       61
   35.995       59
   36.010       53
   36.025       47
   36.040       35
   36.055       42
   36.070       54
   36.085       50
   36.100       51
   36.115       39
   36.130       46
   36.145       56
   36.160       51
   36.175       55
   36.190       68
   36.205       49
   36.220       40
   36.235       43
   36.250       55
   36.265       44
   36.280       40
   36.295       45
   36.310       50
   36.325       58
   36.340       60
   36.355       55
   36.370       63
   36.385       55
   36.400       60
   36.415       48
   36.430       50
   36.445       45
   36.460       37
   36.475       46
   36.490       52
   36.505       56
   36.520       66
   36.535       59
   36.550       60
   36.565       59
   36.580       55
   36.595       46
   36.610       50
   36.625       58
   36.640       48
   36.655       56
   36.670       53
   36.685       46
   36.700       41
   36.715       48
   36.730       42
   36.745       56
   36.760       47
   36.775       56
   36.790       57
   36.805       47
   36.820       59
   36.835       52
   36.850       49
   36.865       58
   36.880       51
   36.895       50
   36.910       43
   36.925       41
   36.940       46
   36.955       50
   36.970       45
   36.985       63
   37.000       62
   37.015       54
   37.030       78
   37.045       67
   37.060       68
   37.075       74
   37.090       69
   37.105       56
   37.120       50
   37.135       47
   37.150       48
   37.165       51
   37.180       60
   37.195       51
   37.210       66
   37.225       55
   37.240       52
   37.255       59
   37.270       64
   37.285       64
   37.300       63
   37.315       63
   37.330       73
   37.345       81
   37.360       69
   37.375       64
   37.390       61
   37.405       64
   37.420       59
   37.435       59
   37.450       62
   37.465       53
   37.480       81
   37.495       63
   37.510       76
   37.525       78
   37.540       77
   37.555       78
   37.570       66
   37.585       60
   37.600       54
   37.615       44
   37.630       44
   37.645       50
   37.660       42
   37.675       45
   37.690       39
   37.705       48
   37.720       51
   37.735       51
   37.750       51
   37.765       49
   37.780       37
   37.795       41
   37.810       50
   37.825       50
   37.840       57
   37.855       52
   37.870       48
   37.885       63
   37.900       57
   37.915       64
   37.930       62
   37.945       57
   37.960       54
   37.975       56
   37.990       41
   38.005       36
   38.020       39
   38.035       48
   38.050       52
   38.065       53
   38.080       47
   38.095       47
   38.110       54
   38.125       57
   38.140       47
   38.155       48
   38.170       49
   38.185       46
   38.200       43
   38.215       38
   38.230       44
   38.245       51
   38.260       50
   38.275       56
   38.290       56
   38.305       49
   38.320       49
   38.335       50
   38.350       55
   38.365       48
   38.380       35
   38.395       40
   38.410       46
   38.425       40
   38.440       40
   38.455       49
   38.470       50
   38.485       54
   38.500       53
   38.515       58
   38.530       45
   38.545       48
   38.560       55
   38.575       53
   38.590       59
   38.605       69
   38.620       80
   38.635       86
   38.650       80
   38.665       77
   38.680       74
   38.695       68
   38.710       53
   38.725       47
   38.740       49
   38.755       49
   38.770       44
   38.785       46
   38.800       49
   38.815       51
   38.830       48
   38.845       46
   38.860       48
   38.875       62
   38.890       55
   38.905       59
   38.920       61
   38.935       55
   38.950       69
   38.965       58
   38.980       59
   38.995       63
   39.010       58
   39.025       63
   39.040       70
   39.055       64
   39.070       52
   39.085       64
   39.100       79
   39.115       61
   39.130       61
   39.145       71
   39.160       67
   39.175       65
   39.190       60
   39.205       70
   39.220       69
   39.235       68
   39.250       66
   39.265       61
   39.280       48
   39.295       50
   39.310       54
   39.325       54
   39.340       55
   39.355       45
   39.370       47
   39.385       56
   39.400       59
   39.415       55
   39.430       49
   39.445       50
   39.460       49
   39.475       45
   39.490       46
   39.505       48
   39.520       42
   39.535       41
   39.550       46
   39.565       48
   39.580       41
   39.595       45
   39.610       52
   39.625       45
   39.640       38
   39.655       36
   39.670       37
   39.685       42
   39.700       47
   39.715       51
   39.730       38
   39.745       37
   39.760       37
   39.775       40
   39.790       34
   39.805       44
   39.820       49
   39.835       49
   39.850       44
   39.865       59
   39.880       34
   39.895       43
   39.910       39
   39.925       42
   39.940       44
   39.955       45
   39.970       47
   39.985       51
   40.000       55
   40.015       56
   40.030       56
   40.045       67
   40.060       65
   40.075       61
   40.090       54
   40.105       57
   40.120       63
   40.135       70
   40.150       80
   40.165       74
   40.180       69
   40.195       69
   40.210       63
   40.225       55
   40.240       65
   40.255       65
   40.270       55
   40.285       50
   40.300       47
   40.315       48
   40.330       54
   40.345       55
   40.360       47
   40.375       51
   40.390       43
   40.405       58
   40.420       49
   40.435       55
   40.450       40
   40.465       52
   40.480       60
   40.495       48
   40.510       55
   40.525       55
   40.540       47
   40.555       50
   40.570       46
   40.585       52
   40.600       44
   40.615       49
   40.630       53
   40.645       49
   40.660       66
   40.675       65
   40.690       61
   40.705       49
   40.720       49
   40.735       49
   40.750       57
   40.765       72
   40.780       64
   40.795       57
   40.810       59
   40.825       61
   40.840       55
   40.855       55
   40.870       48
   40.885       60
   40.900       51
   40.915       58
   40.930       53
   40.945       52
   40.960       67
   40.975       59
   40.990       57
   41.005       57
   41.020       63
   41.035       64
   41.050       69
   41.065       66
   41.080       66
   41.095       80
   41.110       78
   41.125       59
   41.140       57
   41.155       54
   41.170       60
   41.185       38
   41.200       52
   41.215       62
   41.230       56
   41.245       40
   41.260       31
   41.275       43
   41.290       45
   41.305       39
   41.320       31
   41.335       39
   41.350       32
   41.365       32
   41.380       35
   41.395       39
   41.410       33
   41.425       47
   41.440       41
   41.455       43
   41.470       48
   41.485       62
   41.500       55
   41.515       54
   41.530       51
   41.545       43
   41.560       37
   41.575       45
   41.590       42
   41.605       44
   41.620       36
   41.635       37
   41.650       42
   41.665       45
   41.680       45
   41.695       39
   41.710       39
   41.725       54
   41.740       46
   41.755       52
   41.770       39
   41.785       44
   41.800       55
   41.815       44
   41.830       38
   41.845       37
   41.860       45
   41.875       41
   41.890       35
   41.905       40
   41.920       51
   41.935       49
   41.950       51
   41.965       44
   41.980       49
   41.995       54
   42.010       44
   42.025       45
   42.040       44
   42.055       38
   42.070       59
   42.085       58
   42.100       48
   42.115       62
   42.130       56
   42.145       46
   42.160       35
   42.175       47
   42.190       39
   42.205       42
   42.220       39
   42.235       41
   42.250       49
   42.265       40
   42.280       56
   42.295       47
   42.310       46
   42.325       40
   42.340       48
   42.355       48
   42.370       52
   42.385       54
   42.400       49
   42.415       48
   42.430       44
   42.445       53
   42.460       46
   42.475       46
   42.490       49
   42.505       55
   42.520       52
   42.535       44
   42.550       46
   42.565       56
   42.580       60
   42.595       43
   42.610       59
   42.625       64
   42.640       63
   42.655       61
   42.670       55
   42.685       59
   42.700       57
   42.715       63
   42.730       62
   42.745       60
   42.760       53
   42.775       63
   42.790       61
   42.805       58
   42.820       67
   42.835       49
   42.850       40
   42.865       42
   42.880       48
   42.895       45
   42.910       49
   42.925       38
   42.940       42
   42.955       46
   42.970       41
   42.985       50
   43.000       40
   43.015       37
   43.030       39
   43.045       41
   43.060       47
   43.075       42
   43.090       36
   43.105       34
   43.120       46
   43.135       43
   43.150       44
   43.165       40
   43.180       32
   43.195       30
   43.210       41
   43.225       32
   43.240       41
   43.255       41
   43.270       39
   43.285       38
   43.300       36
   43.315       37
   43.330       33
   43.345       43
   43.360       37
   43.375       38
   43.390       35
   43.405       41
   43.420       51
   43.435       39
   43.450       42
   43.465       52
   43.480       42
   43.495       52
   43.510       53
   43.525       62
   43.540       57
   43.555       55
   43.570       50
   43.585       58
   43.600       44
   43.615       37
   43.630       40
   43.645       48
   43.660       41
   43.675       42
   43.690       45
   43.705       45
   43.720       43
   43.735       32
   43.750       34
   43.765       45
   43.780       38
   43.795       43
   43.810       41
   43.825       42
   43.840       29
   43.855       25
   43.870       46
   43.885       37
   43.900       44
   43.915       40
   43.930       37
   43.945       41
   43.960       45
   43.975       44
   43.990       45
   44.005       46
   44.020       53
   44.035       42
   44.050       43
   44.065       40
   44.080       46
   44.095       36
   44.110       34
   44.125       34
   44.140       36
   44.155       37
   44.170       39
   44.185       47
   44.200       44
   44.215       39
   44.230       41
   44.245       40
   44.260       45
   44.275       43
   44.290       57
   44.305       60
   44.320       42
   44.335       35
   44.350       39
   44.365       49
   44.380       47
   44.395       53
   44.410       56
   44.425       61
   44.440       63
   44.455       56
   44.470       65
   44.485       65
   44.500       59
   44.515       56
   44.530       53
   44.545       53
   44.560       57
   44.575       54
   44.590       59
   44.605       65
   44.620       53
   44.635       48
   44.650       42
   44.665       46
   44.680       39
   44.695       35
   44.710       37
   44.725       44
   44.740       57
   44.755       52
   44.770       49
   44.785       46
   44.800       44
   44.815       46
   44.830       50
   44.845       40
   44.860       52
   44.875       46
   44.890       56
   44.905       45
   44.920       30
   44.935       41
   44.950       40
   44.965       51
   44.980       35
   44.995       49
   45.010       50
   45.025       34
   45.040       52
   45.055       56
   45.070       72
   45.085       54
   45.100       62
   45.115       61
   45.130       63
   45.145       63
   45.160       48
   45.175       44
   45.190       46
   45.205       52
   45.220       47
   45.235       50
   45.250       50
   45.265       56
   45.280       53
   45.295       61
   45.310       62
   45.325       61
   45.340       67
   45.355       60
   45.370       58
   45.385       69
   45.400       64
   45.415       64
   45.430       56
   45.445       57
   45.460       62
   45.475       66
   45.490       50
   45.505       50
   45.520       42
   45.535       49
   45.550       59
   45.565       60
   45.580       53
   45.595       59
   45.610       55
   45.625       47
   45.640       34
   45.655       43
   45.670       44
   45.685       50
   45.700       47
   45.715       38
   45.730       40
   45.745       51
   45.760       48
   45.775       48
   45.790       35
   45.805       51
   45.820       62
   45.835       53
   45.850       46
   45.865       62
   45.880       57
   45.895       54
   45.910       55
   45.925       44
   45.940       54
   45.955       51
   45.970       49
   45.985       48
