    4.000       53
    4.015       52
    4.030       55
    4.045       51
    4.060       52
    4.075       43
    4.090       43
    4.105       54
    4.120       46
    4.135       39
    4.150       43
    4.165       44
    4.180       45
    4.195       45
    4.210       42
    4.225       49
    4.240       50
    4.255       45
    4.270       48
    4.285       47
    4.300       43
    4.315       47
    4.330       47
    4.345       43
    4.360       45
    4.375       42
    4.390       39
    4.405       47
    4.420       61
    4.435       47
    4.450       48
    4.465       55
    4.480       56
    4.495       54
    4.510       50
    4.525       62
    4.540       55
    4.555       47
    4.570       51
    4.585       48
    4.600       38
    4.615       41
    4.630       46
    4.645       53
    4.660       35
    4.675       39
    4.690       45
    4.705       54
    4.720       50
    4.735       53
    4.750       50
    4.765       48
    4.780       51
    4.795       51
    4.810       59
    4.825       54
    4.840       55
    4.855       62
    4.870       48
    4.885       49
    4.900       50
    4.915       52
    4.930       46
    4.945       40
    4.960       36
    4.975       40
    4.990       37
    5.005       41
    5.020       42
    5.035       44
    5.050       47
    5.065       51
    5.080       51
    5.095       44
    5.110       42
    5.125       42
    5.140       40
    5.155       41
    5.170       45
    5.185       48
    5.200       42
    5.215       41
    5.230       41
    5.245       44
    5.260       42
    5.275       44
    5.290       47
    5.305       44
    5.320       50
    5.335       45
    5.350       57
    5.365       46
    5.380       38
    5.395       50
    5.410       43
    5.425       46
    5.440       46
    5.455       43
    5.470       37
    5.485       40
    5.500       43
    5.515       50
    5.530       59
    5.545       49
    5.560       46
    5.575       38
    5.590       47
    5.605       43
    5.620       47
    5.635       45
    5.650       43
    5.665       49
    5.680       49
    5.695       57
    5.710       52
    5.725       45
    5.740       40
    5.755       38
    5.770       39
    5.785       46
    5.800       41
    5.815       37
    5.830       42
    5.845       36
    5.860       45
    5.875       44
    5.890       41
    5.905       45
    5.920       42
    5.935       46
    5.950       43
    5.965       46
    5.980       40
    5.995       50
    6.010       44
    6.025       40
    6.040       45
    6.055       49
    6.070       42
    6.085       48
    6.100       41
    6.115       47
    6.130       42
    6.145       46
    6.160       52
    6.175       52
    6.190       50
    6.205       48
    6.220       42
    6.235       44
    6.250       52
    6.265       55
    6.280       56
    6.295       58
    6.310       61
    6.325       79
    6.340       74
    6.355       72
    6.370       69
    6.385       70
    6.400       81
    6.415       98
    6.430      103
    6.445      108
    6.460      110
    6.475      112
    6.490      126
    6.505      141
    6.520      135
    6.535      130
    6.550      146
    6.565      194
    6.580      187
    6.595      206
    6.610      273
    6.625      353
    6.640      387
    6.655      338
    6.670      322
    6.685      338
    6.700      319
    6.715      216
    6.730      119
    6.745       69
    6.760       43
    6.775       42
    6.790       40
    6.805       44
    6.820       48
    6.835       43
    6.850       44
    6.865       42
    6.880       52
    6.895       49
    6.910       44
    6.925       45
    6.940       46
    6.955       55
    6.970       44
    6.985       53
    7.000       50
    7.015       36
    7.030       46
    7.045       58
    7.060       64
    7.075       57
    7.090       59
    7.105       55
    7.120       60
    7.135       66
    7.150       78
    7.165       79
    7.180       92
    7.195      111
    7.210      108
    7.225      124
    7.240      101
    7.255       70
    7.270       43
    7.285       44
    7.300       41
    7.315       35
    7.330       33
    7.345       27
    7.360       33
    7.375       45
    7.390       45
    7.405       40
    7.420       32
    7.435       43
    7.450       46
    7.465       49
    7.480       38
    7.495       31
    7.510       38
    7.525       38
    7.540       36
    7.555       35
    7.570       45
    7.585       43
    7.600       41
    7.615       46
    7.630       43
    7.645       43
    7.660       45
    7.675       52
    7.690       47
    7.705       46
    7.720       45
    7.735       42
    7.750       40
    7.765       46
    7.780       34
    7.795       47
    7.810       41
    7.825       40
    7.840       37
    7.855       43
    7.870       38
    7.885       38
    7.900       38
    7.915       34
    7.930       44
    7.945       49
    7.960       36
    7.975       37
    7.990       38
    8.005       36
    8.020       31
    8.035       49
    8.050       45
    8.065       43
    8.080       41
    8.095       47
    8.110       45
    8.125       40
    8.140       39
    8.155       31
    8.170       34
    8.185       33
    8.200       36
    8.215       41
    8.230       47
    8.245       38
    8.260       43
    8.275       43
    8.290       48
    8.305       37
    8.320       33
    8.335       37
    8.350       34
    8.365       38
    8.380       48
    8.395       41
    8.410       36
    8.425       41
    8.440       44
    8.455       45
    8.470       46
    8.485       54
    8.500       41
    8.515       29
    8.530       35
    8.545       42
    8.560       45
    8.575       36
    8.590       58
    8.605       54
    8.620       48
    8.635       39
    8.650       42
    8.665       49
    8.680       37
    8.695       37
    8.710       43
    8.725       44
    8.740       43
    8.755       43
    8.770       43
    8.785       41
    8.800       47
    8.815       46
    8.830       35
    8.845       29
    8.860       44
    8.875       41
    8.890       49
    8.905       35
    8.920       41
    8.935       39
    8.950       36
    8.965       36
    8.980       41
    8.995       57
    9.010       40
    9.025       42
    9.040       44
    9.055       45
    9.070       35
    9.085       37
    9.100       39
    9.115       41
    9.130       42
    9.145       52
    9.160       45
    9.175       55
    9.190       52
    9.205       37
    9.220       39
    9.235       37
    9.250       45
    9.265       45
    9.280       36
    9.295       42
    9.310       47
    9.325       50
    9.340       40
    9.355       48
    9.370       38
    9.385       43
    9.400       44
    9.415       45
    9.430       42
    9.445       45
    9.460       53
    9.475       50
    9.490       44
    9.505       42
    9.520       36
    9.535       43
    9.550       42
    9.565       41
    9.580       39
    9.595       41
    9.610       47
    9.625       60
    9.640       50
    9.655       48
    9.670       53
    9.685       62
    9.700       36
    9.715       36
    9.730       44
    9.745       44
    9.760       45
    9.775       48
    9.790       50
    9.805       55
    9.820       64
    9.835       57
    9.850       54
    9.865       42
    9.880       40
    9.895       35
    9.910       34
    9.925       41
    9.940       41
    9.955       35
    9.970       49
    9.985       48
   10.000       41
   10.015       39
   10.030       41
   10.045       44
   10.060       38
   10.075       41
   10.090       46
   10.105       37
   10.120       36
   10.135       45
   10.150       45
   10.165       48
   10.180       47
   10.195       38
   10.210       49
   10.225       45
   10.240       52
   10.255       52
   10.270       51
   10.285       49
   10.300       41
   10.315       58
   10.330       47
   10.345       50
   10.360       55
   10.375       51
   10.390       48
   10.405       64
   10.420       58
   10.435       68
   10.450       55
   10.465       61
   10.480       63
   10.495       72
   10.510       94
   10.525       78
   10.540       89
   10.555       65
   10.570       68
   10.585       54
   10.600       50
   10.615       52
   10.630       54
   10.645       60
   10.660       64
   10.675       64
   10.690       65
   10.705       70
   10.720       67
   10.735       72
   10.750       68
   10.765       81
   10.780       88
   10.795      109
   10.810      136
   10.825      135
   10.840      142
   10.855      140
   10.870      137
   10.885      171
   10.900      227
   10.915      230
   10.930      202
   10.945      155
   10.960       89
   10.975       59
   10.990       49
   11.005       50
   11.020       41
   11.035       47
   11.050       52
   11.065       42
   11.080       38
   11.095       38
   11.110       46
   11.125       51
   11.140       50
   11.155       50
   11.170       48
   11.185       54
   11.200       63
   11.215       64
   11.230       59
   11.245       63
   11.260       74
   11.275       83
   11.290       78
   11.305       65
   11.320       59
   11.335       51
   11.350       41
   11.365       51
   11.380       51
   11.395       46
   11.410       43
   11.425       49
   11.440       64
   11.455       63
   11.470       63
   11.485       61
   11.500       50
   11.515       52
   11.530       48
   11.545       48
   11.560       37
   11.575       46
   11.590       36
   11.605       42
   11.620       38
   11.635       43
   11.650       49
   11.665       45
   11.680       32
   11.695       51
   11.710       52
   11.725       47
   11.740       47
   11.755       59
   11.770       63
   11.785       66
   11.800       67
   11.815       78
   11.830       80
   11.845       66
   11.860       60
   11.875       68
   11.890       76
   11.905       73
   11.920       61
   11.935       71
   11.950       67
   11.965       59
   11.980       51
   11.995       51
   12.010       39
   12.025       46
   12.040       50
   12.055       76
   12.070       66
   12.085       59
   12.100       61
   12.115       54
   12.130       63
   12.145       59
   12.160       49
   12.175       44
   12.190       45
   12.205       45
   12.220       35
   12.235       35
   12.250       56
   12.265       47
   12.280       36
   12.295       39
   12.310       32
   12.325       32
   12.340       39
   12.355       42
   12.370       48
   12.385       46
   12.400       53
   12.415       39
   12.430       35
   12.445       43
   12.460       41
   12.475       42
   12.490       47
   12.505       42
   12.520       45
   12.535       55
   12.550       52
   12.565       57
   12.580       64
   12.595       69
   12.610       79
   12.625       79
   12.640      101
   12.655      121
   12.670      152
   12.685      159
   12.700      170
   12.715      236
   12.730      277
   12.745      301
   12.760      246
   12.775      190
   12.790      167
   12.805      159
   12.820      156
   12.835      155
   12.850      104
   12.865       83
   12.880       63
   12.895       57
   12.910       56
   12.925       56
   12.940       56
   12.955       59
   12.970       58
   12.985       73
   13.000       71
   13.015       91
   13.030       97
   13.045      104
   13.060      128
   13.075      151
   13.090      191
   13.105      229
   13.120      261
   13.135      214
   13.150      178
   13.165      158
   13.180      163
   13.195      166
   13.210      186
   13.225      215
   13.240      271
   13.255      320
   13.270      368
   13.285      412
   13.300      495
   13.315      587
   13.330      539
   13.345      457
   13.360      402
   13.375      464
   13.390      618
   13.405      856
   13.420     1039
   13.435      829
   13.450      513
   13.465      288
   13.480      182
   13.495      113
   13.510       86
   13.525       96
   13.540      108
   13.555      102
   13.570      120
   13.585      145
   13.600      155
   13.615      186
   13.630      221
   13.645      238
   13.660      274
   13.675      295
   13.690      293
   13.705      241
   13.720      181
   13.735      122
   13.750       82
   13.765       58
   13.780       46
   13.795       49
   13.810       52
   13.825       49
   13.840       47
   13.855       54
   13.870       58
   13.885       53
   13.900       60
   13.915       73
   13.930       94
   13.945       81
   13.960       74
   13.975       65
   13.990       47
   14.005       47
   14.020       50
   14.035       56
   14.050       51
   14.065       45
   14.080       45
   14.095       42
   14.110       46
   14.125       49
   14.140       49
   14.155       53
   14.170       50
   14.185       56
   14.200       53
   14.215       55
   14.230       69
   14.245       70
   14.260       72
   14.275       88
   14.290      105
   14.305      122
   14.320      136
   14.335      152
   14.350      157
   14.365      155
   14.380      172
   14.395      184
   14.410      178
   14.425      161
   14.440      134
   14.455      137
   14.470      171
   14.485      171
   14.500      156
   14.515      127
   14.530      125
   14.545      159
   14.560      175
   14.575      199
   14.590      259
   14.605      332
   14.620      308
   14.635      219
   14.650      175
   14.665      109
   14.680       66
   14.695       62
   14.710       51
   14.725       40
   14.740       50
   14.755       49
   14.770       44
   14.785       40
   14.800       41
   14.815       46
   14.830       41
   14.845       52
   14.860       43
   14.875       40
   14.890       47
   14.905       42
   14.920       56
   14.935       55
   14.950       65
   14.965       57
   14.980       57
   14.995       69
   15.010       81
   15.025       96
   15.040      128
   15.055      136
   15.070      194
   15.085      208
   15.100      264
   15.115      301
   15.130      323
   15.145      400
   15.160      478
   15.175      573
   15.190      778
   15.205      801
   15.220      661
   15.235      442
   15.250      284
   15.265      181
   15.280      152
   15.295      130
   15.310      144
   15.325      123
   15.340      127
   15.355      152
   15.370      150
   15.385      167
   15.400      197
   15.415      207
   15.430      205
   15.445      206
   15.460      179
   15.475      161
   15.490      139
   15.505      145
   15.520      137
   15.535      126
   15.550      134
   15.565      135
   15.580      131
   15.595      171
   15.610      198
   15.625      248
   15.640      256
   15.655      275
   15.670      254
   15.685      317
   15.700      373
   15.715      334
   15.730      289
   15.745      193
   15.760      162
   15.775      152
   15.790      163
   15.805      167
   15.820      186
   15.835      198
   15.850      195
   15.865      228
   15.880      245
   15.895      260
   15.910      225
   15.925      181
   15.940      128
   15.955       92
   15.970       68
   15.985       54
   16.000       52
   16.015       47
   16.030       47
   16.045       56
   16.060       56
   16.075       53
   16.090       75
   16.105       85
   16.120       92
   16.135      100
   16.150      129
   16.165      147
   16.180      157
   16.195      221
   16.210      268
   16.225      279
   16.240      255
   16.255      261
   16.270      269
   16.285      236
   16.300      167
   16.315      123
   16.330       86
   16.345       72
   16.360       85
   16.375       96
   16.390       96
   16.405      132
   16.420      151
   16.435      161
   16.450      159
   16.465      169
   16.480      190
   16.495      227
   16.510      239
   16.525      334
   16.540      436
   16.555      484
   16.570      441
   16.585      328
   16.600      253
   16.615      241
   16.630      296
   16.645      319
   16.660      332
   16.675      348
   16.690      326
   16.705      279
   16.720      253
   16.735      267
   16.750      222
   16.765      219
   16.780      222
   16.795      264
   16.810      264
   16.825      270
   16.840      285
   16.855      269
   16.870      304
   16.885      336
   16.900      314
   16.915      306
   16.930      256
   16.945      188
   16.960      141
   16.975      120
   16.990       94
   17.005       98
   17.020      102
   17.035       98
   17.050      110
   17.065      140
   17.080      153
   17.095      176
   17.110      218
   17.125      250
   17.140      263
   17.155      259
   17.170      209
   17.185      165
   17.200      155
   17.215      127
   17.230      139
   17.245      168
   17.260      210
   17.275      258
   17.290      290
   17.305      347
   17.320      390
   17.335      445
   17.350      413
   17.365      339
   17.380      257
   17.395      191
   17.410      136
   17.425      129
   17.440      133
   17.455      114
   17.470      117
   17.485      106
   17.500       98
   17.515       94
   17.530      108
   17.545      131
   17.560      137
   17.575      165
   17.590      182
   17.605      233
   17.620      249
   17.635      163
   17.650      134
   17.665       91
   17.680       61
   17.695       74
   17.710       78
   17.725       77
   17.740       76
   17.755       99
   17.770      102
   17.785      101
   17.800       96
   17.815       97
   17.830       78
   17.845       65
   17.860       93
   17.875       95
   17.890      100
   17.905       87
   17.920       81
   17.935       77
   17.950       85
   17.965       85
   17.980       65
   17.995       64
   18.010       45
   18.025       49
   18.040       49
   18.055       51
   18.070       50
   18.085       44
   18.100       52
   18.115       53
   18.130       51
   18.145       49
   18.160       34
   18.175       40
   18.190       43
   18.205       48
   18.220       44
   18.235       49
   18.250       55
   18.265       56
   18.280       59
   18.295       61
   18.310       88
   18.325      100
   18.340      118
   18.355      127
   18.370      149
   18.385      181
   18.400      221
   18.415      231
   18.430      228
   18.445      182
   18.460      156
   18.475      144
   18.490       90
   18.505       87
   18.520       76
   18.535       56
   18.550       41
   18.565       49
   18.580       55
   18.595       63
   18.610       72
   18.625       67
   18.640       75
   18.655       80
   18.670      104
   18.685      122
   18.700      140
   18.715      168
   18.730      134
   18.745      111
   18.760      126
   18.775      138
   18.790      155
   18.805      151
   18.820      125
   18.835      104
   18.850       85
   18.865       85
   18.880       77
   18.895       65
   18.910       74
   18.925       76
   18.940       63
   18.955       69
   18.970       75
   18.985       75
   19.000       84
   19.015       84
   19.030       79
   19.045       86
   19.060       79
   19.075       73
   19.090       78
   19.105       88
   19.120      101
   19.135       92
   19.150       73
   19.165       60
   19.180       60
   19.195       51
   19.210       52
   19.225       51
   19.240       51
   19.255       49
   19.270       37
   19.285       37
   19.300       37
   19.315       49
   19.330       40
   19.345       38
   19.360       47
   19.375       33
   19.390       39
   19.405       41
   19.420       52
   19.435       50
   19.450       44
   19.465       57
   19.480       60
   19.495       80
   19.510       82
   19.525       78
   19.540       99
   19.555       97
   19.570      102
   19.585      112
   19.600      102
   19.615       83
   19.630       76
   19.645       70
   19.660       76
   19.675       87
   19.690      105
   19.705      129
   19.720      146
   19.735      158
   19.750      167
   19.765      157
   19.780      144
   19.795      137
   19.810      110
   19.825       84
   19.840       72
   19.855       74
   19.870       64
   19.885       67
   19.900       78
   19.915      100
   19.930      138
   19.945      161
   19.960      194
   19.975      260
   19.990      299
   20.005      410
   20.020      513
   20.035      557
   20.050      486
   20.065      379
   20.080      275
   20.095      225
   20.110      219
   20.125      210
   20.140      252
   20.155      268
   20.170      268
   20.185      231
   20.200      187
   20.215      155
   20.230      121
   20.245       89
   20.260       76
   20.275       75
   20.290       62
   20.305       70
   20.320       72
   20.335       73
   20.350       85
   20.365       83
   20.380       76
   20.395       71
   20.410       61
   20.425       67
   20.440       69
   20.455       64
   20.470       63
   20.485       47
   20.500       44
   20.515       50
   20.530       42
   20.545       47
   20.560       37
   20.575       46
   20.590       59
   20.605       43
   20.620       50
   20.635       53
   20.650       54
   20.665       56
   20.680       74
   20.695       89
   20.710       82
   20.725       57
   20.740       58
   20.755       64
   20.770       56
   20.785       62
   20.800       73
   20.815       67
   20.830       81
   20.845       76
   20.860       97
   20.875      123
   20.890      169
   20.905      168
   20.920      162
   20.935      160
   20.950      149
   20.965      136
   20.980      139
   20.995      164
   21.010      172
   21.025      154
   21.040      130
   21.055       99
   21.070       76
   21.085       55
   21.100       42
   21.115       56
   21.130       57
   21.145       53
   21.160       53
   21.175       54
   21.190       50
   21.205       52
   21.220       51
   21.235       47
   21.250       43
   21.265       46
   21.280       67
   21.295       60
   21.310       61
   21.325       61
   21.340       64
   21.355       82
   21.370       86
   21.385      104
   21.400      107
   21.415       88
   21.430       76
   21.445       68
   21.460       59
   21.475       46
   21.490       65
   21.505       55
   21.520       39
   21.535       49
   21.550       37
   21.565       43
   21.580       45
   21.595       40
   21.610       44
   21.625       53
   21.640       60
   21.655       62
   21.670       64
   21.685       76
   21.700      101
   21.715      111
   21.730      144
   21.745      172
   21.760      161
   21.775      151
   21.790      117
   21.805      115
   21.820      115
   21.835      135
   21.850      161
   21.865      167
   21.880      197
   21.895      273
   21.910      397
   21.925      475
   21.940      471
   21.955      400
   21.970      270
   21.985      202
   22.000      130
   22.015      121
   22.030      107
   22.045       98
   22.060       87
   22.075       82
   22.090       81
   22.105       77
   22.120       62
   22.135       64
   22.150       54
   22.165       58
   22.180       46
   22.195       54
   22.210       51
   22.225       37
   22.240       47
   22.255       45
   22.270       40
   22.285       46
   22.300       59
   22.315       48
   22.330       39
   22.345       49
   22.360       56
   22.375       50
   22.390       47
   22.405       59
   22.420       76
   22.435       69
   22.450       88
   22.465       86
   22.480       84
   22.495      100
   22.510      102
   22.525       99
   22.540      120
   22.555       88
   22.570       85
   22.585       73
   22.600       62
   22.615       61
   22.630       58
   22.645       52
   22.660       65
   22.675       97
   22.690       94
   22.705       84
   22.720      101
   22.735      115
   22.750      110
   22.765      126
   22.780      131
   22.795      141
   22.810      125
   22.825      100
   22.840       83
   22.855       82
   22.870       84
   22.885       95
   22.900      112
   22.915      120
   22.930      116
   22.945      143
   22.960      159
   22.975      146
   22.990      140
   23.005      119
   23.020      129
   23.035      108
   23.050       84
   23.065       80
   23.080       65
   23.095       53
   23.110       48
   23.125       54
   23.140       56
   23.155       47
   23.170       42
   23.185       54
   23.200       73
   23.215       71
   23.230       77
   23.245       69
   23.260       63
   23.275       70
   23.290       78
   23.305       87
   23.320      101
   23.335      104
   23.350      105
   23.365       96
   23.380       87
   23.395       69
   23.410       57
   23.425       48
   23.440       61
   23.455       38
   23.470       49
   23.485       44
   23.500       52
   23.515       65
   23.530       60
   23.545       69
   23.560       69
   23.575       64
   23.590       59
   23.605       41
   23.620       48
   23.635       56
   23.650       52
   23.665       56
   23.680       55
   23.695       58
   23.710       64
   23.725       56
   23.740       64
   23.755       68
   23.770       80
   23.785       71
   23.800       63
   23.815       72
   23.830       57
   23.845       55
   23.860       44
   23.875       50
   23.890       52
   23.905       53
   23.920       52
   23.935       53
   23.950       59
   23.965       61
   23.980       67
   23.995       67
   24.010       60
   24.025       55
   24.040       54
   24.055       65
   24.070       64
   24.085       65
   24.100       80
   24.115       85
   24.130       89
   24.145       85
   24.160       80
   24.175       93
   24.190       63
   24.205       46
   24.220       42
   24.235       49
   24.250       46
   24.265       48
   24.280       47
   24.295       52
   24.310       57
   24.325       67
   24.340       52
   24.355       69
   24.370       68
   24.385       91
   24.400       94
   24.415       73
   24.430       75
   24.445       54
   24.460       48
   24.475       45
   24.490       43
   24.505       46
   24.520       46
   24.535       41
   24.550       38
   24.565       34
   24.580       42
   24.595       43
   24.610       47
   24.625       46
   24.640       45
   24.655       53
   24.670       55
   24.685       54
   24.700       75
   24.715       85
   24.730       89
   24.745       91
   24.760       88
   24.775       83
   24.790       88
   24.805       74
   24.820       82
   24.835       61
   24.850       51
   24.865       45
   24.880       51
   24.895       51
   24.910       69
   24.925       66
   24.940       54
   24.955       49
   24.970       48
   24.985       43
   25.000       55
   25.015       50
   25.030       47
   25.045       47
   25.060       56
   25.075       58
   25.090       70
   25.105      102
   25.120      115
   25.135      120
   25.150      109
   25.165       83
   25.180       74
   25.195       68
   25.210       71
   25.225       59
   25.240       60
   25.255       53
   25.270       61
   25.285       54
   25.300       75
   25.315       87
   25.330       75
   25.345       80
   25.360       84
   25.375       71
   25.390       60
   25.405       45
   25.420       43
   25.435       53
   25.450       56
   25.465       53
   25.480       63
   25.495       75
   25.510       74
   25.525       84
   25.540      111
   25.555      115
   25.570      110
   25.585       96
   25.600       78
   25.615       74
   25.630       61
   25.645       55
   25.660       47
   25.675       59
   25.690       66
   25.705       63
   25.720       59
   25.735       79
   25.750       99
   25.765      110
   25.780      128
   25.795      141
   25.810      164
   25.825      173
   25.840      153
   25.855      146
   25.870      127
   25.885       85
   25.900       83
   25.915       70
   25.930       81
   25.945       84
   25.960      100
   25.975      107
   25.990      105
   26.005      115
   26.020      126
   26.035      136
   26.050      135
   26.065      112
   26.080       90
   26.095       75
   26.110       75
   26.125       74
   26.140       78
   26.155       84
   26.170       64
   26.185       59
   26.200       67
   26.215       61
   26.230       53
   26.245       62
   26.260       71
   26.275       78
   26.290      100
   26.305      122
   26.320      116
   26.335      117
   26.350      113
   26.365       97
   26.380       74
   26.395       70
   26.410       68
   26.425       71
   26.440       66
   26.455       65
   26.470       70
   26.485       78
   26.500       71
   26.515       70
   26.530       74
   26.545       63
   26.560       66
   26.575       57
   26.590       45
   26.605       58
   26.620       52
   26.635       49
   26.650       57
   26.665       60
   26.680       59
   26.695       46
   26.710       49
   26.725       53
   26.740       60
   26.755       53
   26.770       57
   26.785       41
   26.800       68
   26.815       81
   26.830       73
   26.845       78
   26.860       63
   26.875       62
   26.890       48
   26.905       49
   26.920       50
   26.935       51
   26.950       68
   26.965       70
   26.980       81
   26.995       98
   27.010      108
   27.025      126
   27.040      153
   27.055      155
   27.070      129
   27.085      119
   27.100      131
   27.115      134
   27.130      127
   27.145      127
   27.160      122
   27.175      108
   27.190       80
   27.205       92
   27.220       80
   27.235       65
   27.250       63
   27.265       54
   27.280       57
   27.295       58
   27.310       54
   27.325       57
   27.340       55
   27.355       78
   27.370       79
   27.385       76
   27.400       77
   27.415       63
   27.430       65
   27.445       67
   27.460       68
   27.475       67
   27.490       72
   27.505       75
   27.520       72
   27.535       61
   27.550       85
   27.565       89
   27.580       94
   27.595       94
   27.610       89
   27.625       89
   27.640      107
   27.655      101
   27.670      112
   27.685      128
   27.700      142
   27.715      170
   27.730      170
   27.745      181
   27.760      210
   27.775      215
   27.790      192
   27.805      161
   27.820      133
   27.835      134
   27.850      117
   27.865      106
   27.880       77
   27.895       87
   27.910       80
   27.925       86
   27.940       75
   27.955       81
   27.970      111
   27.985      100
   28.000      109
   28.015      123
   28.030      120
   28.045      142
   28.060      127
   28.075      116
   28.090      105
   28.105       83
   28.120       98
   28.135       91
   28.150       77
   28.165       77
   28.180       89
   28.195       77
   28.210       63
   28.225       57
   28.240       60
   28.255       70
   28.270       74
   28.285       64
   28.300       61
   28.315       73
   28.330       59
   28.345       48
   28.360       57
   28.375       86
   28.390       82
   28.405       88
   28.420       92
   28.435      101
   28.450       94
   28.465       87
   28.480       95
   28.495       89
   28.510       92
   28.525       91
   28.540       92
   28.555      102
   28.570      124
   28.585       91
   28.600       85
   28.615       79
   28.630       68
   28.645       63
   28.660       57
   28.675       48
   28.690       48
   28.705       42
   28.720       45
   28.735       51
   28.750       46
   28.765       56
   28.780       67
   28.795       68
   28.810       64
   28.825       76
   28.840       74
   28.855       60
   28.870       68
   28.885       61
   28.900       60
   28.915       52
   28.930       54
   28.945       63
   28.960       73
   28.975       68
   28.990       67
   29.005       75
   29.020       69
   29.035       85
   29.050       91
   29.065      100
   29.080      105
   29.095       83
   29.110       89
   29.125      101
   29.140       94
   29.155       95
   29.170      104
   29.185      121
   29.200      107
   29.215      111
   29.230      113
   29.245       94
   29.260       86
   29.275       82
   29.290       86
   29.305       83
   29.320       83
   29.335       66
   29.350       78
   29.365       67
   29.380       74
   29.395       78
   29.410       83
   29.425       77
   29.440       89
   29.455       74
   29.470       60
   29.485       72
   29.500       77
   29.515       68
   29.530       54
   29.545       52
   29.560       49
   29.575       60
   29.590       59
   29.605       67
   29.620       70
   29.635       60
   29.650       66
   29.665       63
   29.680       75
   29.695       74
   29.710      102
   29.725       99
   29.740      102
   29.755      109
   29.770       92
   29.785      102
   29.800       98
   29.815      110
   29.830      104
   29.845      108
   29.860       97
   29.875      119
   29.890      109
   29.905      101
   29.920      108
   29.935      110
   29.950       82
   29.965       72
   29.980       70
   29.995       71
   30.010       57
   30.025       57
   30.040       60
   30.055       49
   30.070       50
   30.085       50
   30.100       46
   30.115       52
   30.130       43
   30.145       52
   30.160       60
   30.175       50
   30.190       50
   30.205       52
   30.220       47
   30.235       43
   30.250       50
   30.265       43
   30.280       46
   30.295       48
   30.310       48
   30.325       52
   30.340       48
   30.355       48
   30.370       57
   30.385       47
   30.400       59
   30.415       58
   30.430       64
   30.445       52
   30.460       51
   30.475       48
   30.490       57
   30.505       58
   30.520       58
   30.535       51
   30.550       58
   30.565       60
   30.580       64
   30.595       65
   30.610       68
   30.625       62
   30.640       69
   30.655       73
   30.670       69
   30.685       82
   30.700       92
   30.715       98
   30.730       96
   30.745       94
   30.760       98
   30.775      105
   30.790       85
   30.805       76
   30.820       79
   30.835       80
   30.850       82
   30.865       76
   30.880       85
   30.895       78
   30.910       69
   30.925       70
   30.940       64
   30.955       50
   30.970       55
   30.985       43
   31.000       56
   31.015       45
   31.030       53
   31.045       60
   31.060       62
   31.075       77
   31.090       81
   31.105       93
   31.120       97
   31.135      100
   31.150       85
   31.165       82
   31.180       93
   31.195       91
   31.210       77
   31.225       77
   31.240       58
   31.255       61
   31.270       66
   31.285       67
   31.300       63
   31.315       55
   31.330       52
   31.345       60
   31.360       57
   31.375       67
   31.390       71
   31.405       77
   31.420       80
   31.435       81
   31.450       83
   31.465       84
   31.480       78
   31.495       81
   31.510       91
   31.525       82
   31.540       74
   31.555       82
   31.570       63
   31.585       74
   31.600       80
   31.615       77
   31.630       71
   31.645       73
   31.660       80
   31.675       81
   31.690       77
   31.705       96
   31.720       86
   31.735      101
   31.750       94
   31.765       89
   31.780       92
   31.795       87
   31.810       87
   31.825       97
   31.840       99
   31.855       90
   31.870       86
   31.885       92
   31.900       92
   31.915      102
   31.930       99
   31.945      101
   31.960       87
   31.975       77
   31.990       82
   32.005       80
   32.020       86
   32.035       81
   32.050       88
   32.065       89
   32.080      104
   32.095       99
   32.110       98
   32.125       93
   32.140       89
   32.155       69
   32.170       74
   32.185       72
   32.200       71
   32.215       77
   32.230       71
   32.245       70
   32.260       81
   32.275       81
   32.290       87
   32.305       76
   32.320       86
   32.335       78
   32.350       58
   32.365       58
   32.380       53
   32.395       59
   32.410       66
   32.425       69
   32.440       54
   32.455       49
   32.470       49
   32.485       67
   32.500       51
   32.515       64
   32.530       74
   32.545       61
   32.560       71
   32.575       72
   32.590       65
   32.605       68
   32.620       62
   32.635       60
   32.650       52
   32.665       61
   32.680       50
   32.695       44
   32.710       38
   32.725       52
   32.740       49
   32.755       52
   32.770       57
   32.785       51
   32.800       60
   32.815       51
   32.830       56
   32.845       49
   32.860       37
   32.875       61
   32.890       57
   32.905       53
   32.920       56
   32.935       48
   32.950       49
   32.965       46
   32.980       45
   32.995       43
   33.010       53
   33.025       39
   33.040       48
   33.055       63
   33.070       79
   33.085       90
   33.100       78
   33.115       73
   33.130       91
   33.145       85
   33.160       67
   33.175       83
   33.190       73
   33.205       65
   33.220       55
   33.235       59
   33.250       70
   33.265       67
   33.280       53
   33.295       54
   33.310       52
   33.325       55
   33.340       46
   33.355       55
   33.370       59
   33.385       44
   33.400       52
   33.415       53
   33.430       56
   33.445       55
   33.460       47
   33.475       54
   33.490       47
   33.505       53
   33.520       64
   33.535       62
   33.550       61
   33.565       63
   33.580       70
   33.595       74
   33.610       81
   33.625       73
   33.640       95
   33.655      108
   33.670       96
   33.685      112
   33.700      140
   33.715      112
   33.730      104
   33.745       98
   33.760       94
   33.775       87
   33.790       92
   33.805       86
   33.820       82
   33.835       84
   33.850       78
   33.865       76
   33.880       54
   33.895       70
   33.910       73
   33.925       55
   33.940       62
   33.955       71
   33.970       87
   33.985      102
   34.000       85
   34.015      107
   34.030       88
   34.045       80
   34.060       80
   34.075       69
   34.090       54
   34.105       66
   34.120       65
   34.135       63
   34.150       74
   34.165       71
   34.180       58
   34.195       75
   34.210       86
   34.225       94
   34.240       86
   34.255       85
   34.270       89
   34.285       85
   34.300       82
   34.315       88
   34.330       67
   34.345       62
   34.360       64
   34.375       67
   34.390       46
   34.405       46
   34.420       54
   34.435       47
   34.450       50
   34.465       54
   34.480       63
   34.495       49
   34.510       43
   34.525       50
   34.540       50
   34.555       43
   34.570       55
   34.585       48
   34.600       51
   34.615       56
   34.630       50
   34.645       52
   34.660       55
   34.675       72
   34.690       71
   34.705       70
   34.720       72
   34.735       76
   34.750       62
   34.765       63
   34.780       61
   34.795       50
   34.810       56
   34.825       41
   34.840       34
   34.855       45
   34.870       43
   34.885       44
   34.900       50
   34.915       54
   34.930       59
   34.945       47
   34.960       47
   34.975       50
   34.990       54
   35.005       68
   35.020       62
   35.035       53
   35.050       64
   35.065       62
   35.080       59
   35.095       56
   35.110       57
   35.125       47
   35.140       45
   35.155       51
   35.170       61
   35.185       60
   35.200       60
   35.215       59
   35.230       59
   35.245       63
   35.260       62
   35.275       54
   35.290       59
   35.305       61
   35.320       58
   35.335       54
   35.350       59
   35.365       62
   35.380       71
   35.395       67
   35.410       67
   35.425       63
   35.440       72
   35.455       68
   35.470       77
   35.485       62
   35.500       66
   35.515       63
   35.530       80
   35.545       70
   35.560       77
   35.575       73
   35.590       78
   35.605       89
   35.620       90
   35.635       96
   35.650       96
   35.665       97
   35.680       93
   35.695       79
   35.710       80
   35.725       77
   35.740       79
   35.755       85
   35.770       79
   35.785       95
   35.800       96
   35.815       91
   35.830       89
   35.845       70
   35.860       76
   35.875       60
   35.890       69
   35.905       69
   35.920       77
   35.935       56
   35.950       60
   35.965       54
   35.980       52
   35.995       62
   36.010       57
   36.025       54
   36.040       58
   36.055       64
   36.070       58
   36.085       49
   36.100       52
   36.115       53
   36.130       51
   36.145       52
   36.160       43
   36.175       50
   36.190       47
   36.205       44
   36.220       43
   36.235       42
   36.250       45
   36.265       40
   36.280       46
   36.295       51
   36.310       51
   36.325       63
   36.340       47
   36.355       57
   36.370       48
   36.385       42
   36.400       45
   36.415       52
   36.430       50
   36.445       53
   36.460       57
   36.475       58
   36.490       57
   36.505       59
   36.520       65
   36.535       56
   36.550       46
   36.565       55
   36.580       51
   36.595       40
   36.610       40
   36.625       49
   36.640       49
   36.655       42
   36.670       61
   36.685       61
   36.700       63
   36.715       62
   36.730       77
   36.745       73
   36.760       48
   36.775       50
   36.790       50
   36.805       46
   36.820       54
   36.835       37
   36.850       41
   36.865       37
   36.880       46
   36.895       49
   36.910       43
   36.925       61
   36.940       60
   36.955       62
   36.970       63
   36.985       68
   37.000       80
   37.015       69
   37.030       77
   37.045       65
   37.060       56
   37.075       63
   37.090       61
   37.105       45
   37.120       66
   37.135       69
   37.150       67
   37.165       52
   37.180       64
   37.195       67
   37.210       57
   37.225       54
   37.240       60
   37.255       64
   37.270       70
   37.285       53
   37.300       65
   37.315       64
   37.330       65
   37.345       64
   37.360       62
   37.375       62
   37.390       51
   37.405       60
   37.420       71
   37.435       60
   37.450       64
   37.465       57
   37.480       58
   37.495       69
   37.510       74
   37.525       85
   37.540       66
   37.555       67
   37.570       63
   37.585       52
   37.600       47
   37.615       45
   37.630       52
   37.645       43
   37.660       44
   37.675       47
   37.690       42
   37.705       48
   37.720       46
   37.735       41
   37.750       46
   37.765       37
   37.780       56
   37.795       60
   37.810       58
   37.825       60
   37.840       61
   37.855       60
   37.870       54
   37.885       57
   37.900       52
   37.915       56
   37.930       53
   37.945       48
   37.960       49
   37.975       44
   37.990       48
   38.005       43
   38.020       49
   38.035       52
   38.050       48
   38.065       59
   38.080       64
   38.095       59
   38.110       53
   38.125       50
   38.140       50
   38.155       57
   38.170       65
   38.185       66
   38.200       54
   38.215       43
   38.230       53
   38.245       67
   38.260       57
   38.275       56
   38.290       59
   38.305       50
   38.320       48
   38.335       50
   38.350       49
   38.365       43
   38.380       51
   38.395       48
   38.410       58
   38.425       57
   38.440       45
   38.455       51
   38.470       43
   38.485       47
   38.500       52
   38.515       62
   38.530       49
   38.545       58
   38.560       65
   38.575       69
   38.590       75
   38.605       73
   38.620       79
   38.635       80
   38.650       49
   38.665       49
   38.680       49
   38.695       44
   38.710       47
   38.725       55
   38.740       45
   38.755       53
   38.770       59
   38.785       50
   38.800       58
   38.815       58
   38.830       45
   38.845       50
   38.860       57
   38.875       63
   38.890       66
   38.905       55
   38.920       59
   38.935       53
   38.950       59
   38.965       56
   38.980       60
   38.995       65
   39.010       61
   39.025       67
   39.040       59
   39.055       64
   39.070       63
   39.085       70
   39.100       67
   39.115       71
   39.130       65
   39.145       64
   39.160       62
   39.175       52
   39.190       54
   39.205       59
   39.220       47
   39.235       54
   39.250       55
   39.265       43
   39.280       47
   39.295       39
   39.310       50
   39.325       55
   39.340       51
   39.355       57
   39.370       64
   39.385       47
   39.400       51
   39.415       46
   39.430       49
   39.445       47
   39.460       54
   39.475       48
   39.490       40
   39.505       47
   39.520       45
   39.535       42
   39.550       41
   39.565       38
   39.580       43
   39.595       38
   39.610       38
   39.625       40
   39.640       50
   39.655       50
   39.670       46
   39.685       39
   39.700       47
   39.715       51
   39.730       41
   39.745       44
   39.760       42
   39.775       43
   39.790       45
   39.805       45
   39.820       42
   39.835       36
   39.850       50
   39.865       46
   39.880       41
   39.895       46
   39.910       55
   39.925       58
   39.940       60
   39.955       69
   39.970       60
   39.985       62
   40.000       50
   40.015       63
   40.030       68
   40.045       60
   40.060       53
   40.075       61
   40.090       56
   40.105       74
   40.120       68
   40.135       65
   40.150       70
   40.165       62
   40.180       58
   40.195       50
   40.210       44
   40.225       37
   40.240       44
   40.255       43
   40.270       42
   40.285       41
   40.300       35
   40.315       59
   40.330       48
   40.345       45
   40.360       42
   40.375       43
   40.390       54
   40.405       53
   40.420       55
   40.435       56
   40.450       62
   40.465       49
   40.480       44
   40.495       62
   40.510       54
   40.525       52
   40.540       54
   40.555       61
   40.570       58
   40.585       57
   40.600       69
   40.615       73
   40.630       77
   40.645       62
   40.660       60
   40.675       48
   40.690       55
   40.705       56
   40.720       63
   40.735       61
   40.750       64
   40.765       50
   40.780       48
   40.795       50
   40.810       56
   40.825       49
   40.840       44
   40.855       47
   40.870       47
   40.885       51
   40.900       45
   40.915       45
   40.930       52
   40.945       58
   40.960       55
   40.975       61
   40.990       67
   41.005       65
   41.020       62
   41.035       55
   41.050       49
   41.065       57
   41.080       60
   41.095       54
   41.110       51
   41.125       55
   41.140       48
   41.155       46
   41.170       50
   41.185       48
   41.200       44
   41.215       38
   41.230       39
   41.245       35
   41.260       36
   41.275       47
   41.290       56
   41.305       45
   41.320       44
   41.335       41
   41.350       43
   41.365       53
   41.380       50
   41.395       48
   41.410       44
   41.425       56
   41.440       48
   41.455       49
   41.470       43
   41.485       45
   41.500       43
   41.515       46
   41.530       55
   41.545       46
   41.560       47
   41.575       42
   41.590       45
   41.605       46
   41.620       42
   41.635       44
   41.650       45
   41.665       42
   41.680       49
   41.695       47
   41.710       42
   41.725       45
   41.740       42
   41.755       53
   41.770       49
   41.785       47
   41.800       41
   41.815       39
   41.830       33
   41.845       40
   41.860       48
   41.875       50
   41.890       48
   41.905       44
   41.920       39
   41.935       49
   41.950       49
   41.965       52
   41.980       61
   41.995       47
   42.010       47
   42.025       59
   42.040       53
   42.055       61
   42.070       47
   42.085       52
   42.100       50
   42.115       44
   42.130       53
   42.145       53
   42.160       52
   42.175       55
   42.190       45
   42.205       48
   42.220       35
   42.235       43
   42.250       53
   42.265       57
   42.280       50
   42.295       44
   42.310       49
   42.325       49
   42.340       34
   42.355       38
   42.370       46
   42.385       40
   42.400       50
   42.415       51
   42.430       47
   42.445       40
   42.460       33
   42.475       33
   42.490       44
   42.505       47
   42.520       45
   42.535       49
   42.550       43
   42.565       38
   42.580       54
   42.595       53
   42.610       59
   42.625       55
   42.640       52
   42.655       52
   42.670       50
   42.685       55
   42.700       48
   42.715       44
   42.730       59
   42.745       53
   42.760       51
   42.775       60
   42.790       59
   42.805       54
   42.820       46
   42.835       47
   42.850       46
   42.865       36
   42.880       53
   42.895       48
   42.910       35
   42.925       43
   42.940       37
   42.955       49
   42.970       45
   42.985       42
   43.000       42
   43.015       41
   43.030       45
   43.045       60
   43.060       62
   43.075       46
   43.090       44
   43.105       50
   43.120       47
   43.135       46
   43.150       52
   43.165       49
   43.180       37
   43.195       46
   43.210       42
   43.225       39
   43.240       43
   43.255       37
   43.270       38
   43.285       45
   43.300       51
   43.315       42
   43.330       49
   43.345       47
   43.360       52
   43.375       43
   43.390       46
   43.405       36
   43.420       61
   43.435       48
   43.450       49
   43.465       49
   43.480       54
   43.495       65
   43.510       60
   43.525       50
   43.540       56
   43.555       45
   43.570       38
   43.585       47
   43.600       47
   43.615       49
   43.630       44
   43.645       46
   43.660       48
   43.675       43
   43.690       38
   43.705       46
   43.720       45
   43.735       38
   43.750       46
   43.765       43
   43.780       34
   43.795       36
   43.810       39
   43.825       39
   43.840       37
   43.855       42
   43.870       44
   43.885       45
   43.900       32
   43.915       43
   43.930       41
   43.945       37
   43.960       39
   43.975       50
   43.990       50
   44.005       49
   44.020       46
   44.035       39
   44.050       35
   44.065       37
   44.080       39
   44.095       37
   44.110       37
   44.125       44
   44.140       47
   44.155       39
   44.170       34
   44.185       50
   44.200       51
   44.215       49
   44.230       49
   44.245       55
   44.260       54
   44.275       51
   44.290       48
   44.305       45
   44.320       40
   44.335       53
   44.350       53
   44.365       49
   44.380       51
   44.395       55
   44.410       65
   44.425       64
   44.440       59
   44.455       59
   44.470       59
   44.485       54
   44.500       52
   44.515       48
   44.530       45
   44.545       50
   44.560       43
   44.575       45
   44.590       44
   44.605       48
   44.620       53
   44.635       46
   44.650       40
   44.665       39
   44.680       46
   44.695       46
   44.710       52
   44.725       47
   44.740       38
   44.755       42
   44.770       50
   44.785       48
   44.800       37
   44.815       40
   44.830       46
   44.845       49
   44.860       46
   44.875       44
   44.890       40
   44.905       45
   44.920       35
   44.935       48
   44.950       47
   44.965       46
   44.980       58
   44.995       60
   45.010       56
   45.025       56
   45.040       60
   45.055       67
   45.070       54
   45.085       55
   45.100       54
   45.115       53
   45.130       47
   45.145       48
   45.160       51
   45.175       50
   45.190       51
   45.205       49
   45.220       54
   45.235       57
   45.250       57
   45.265       63
   45.280       55
   45.295       57
   45.310       62
   45.325       60
   45.340       62
   45.355       54
   45.370       56
   45.385       60
   45.400       53
   45.415       49
   45.430       65
   45.445       59
   45.460       49
   45.475       51
   45.490       54
   45.505       40
   45.520       46
   45.535       45
   45.550       49
   45.565       49
   45.580       43
   45.595       47
   45.610       48
   45.625       47
   45.640       38
   45.655       42
   45.670       40
   45.685       43
   45.700       49
   45.715       37
   45.730       42
   45.745       47
   45.760       49
   45.775       44
   45.790       46
   45.805       52
   45.820       44
   45.835       40
   45.850       42
   45.865       52
   45.880       52
   45.895       57
   45.910       49
   45.925       45
   45.940       33
   45.955       45
   45.970       45
   45.985       52
