    4.000       43
    4.015       57
    4.030       49
    4.045       41
    4.060       49
    4.075       53
    4.090       50
    4.105       53
    4.120       46
    4.135       41
    4.150       42
    4.165       49
    4.180       39
    4.195       53
    4.210       41
    4.225       48
    4.240       51
    4.255       39
    4.270       48
    4.285       58
    4.300       47
    4.315       40
    4.330       44
    4.345       48
    4.360       49
    4.375       47
    4.390       41
    4.405       39
    4.420       48
    4.435       35
    4.450       44
    4.465       41
    4.480       42
    4.495       54
    4.510       54
    4.525       53
    4.540       53
    4.555       36
    4.570       38
    4.585       47
    4.600       45
    4.615       50
    4.630       43
    4.645       36
    4.660       40
    4.675       54
    4.690       58
    4.705       45
    4.720       51
    4.735       42
    4.750       42
    4.765       43
    4.780       47
    4.795       50
    4.810       50
    4.825       51
    4.840       43
    4.855       42
    4.870       44
    4.885       50
    4.900       52
    4.915       52
    4.930       45
    4.945       42
    4.960       37
    4.975       44
    4.990       48
    5.005       54
    5.020       59
    5.035       42
    5.050       41
    5.065       49
    5.080       46
    5.095       40
    5.110       36
    5.125       38
    5.140       44
    5.155       52
    5.170       42
    5.185       54
    5.200       45
    5.215       52
    5.230       48
    5.245       50
    5.260       50
    5.275       46
    5.290       44
    5.305       40
    5.320       42
    5.335       42
    5.350       39
    5.365       43
    5.380       51
    5.395       39
    5.410       38
    5.425       41
    5.440       48
    5.455       42
    5.470       45
    5.485       51
    5.500       53
    5.515       41
    5.530       49
    5.545       44
    5.560       49
    5.575       44
    5.590       54
    5.605       49
    5.620       37
    5.635       34
    5.650       47
    5.665       40
    5.680       36
    5.695       39
    5.710       34
    5.725       34
    5.740       41
    5.755       50
    5.770       44
    5.785       36
    5.800       33
    5.815       50
    5.830       34
    5.845       44
    5.860       33
    5.875       40
    5.890       26
    5.905       43
    5.920       42
    5.935       44
    5.950       37
    5.965       45
    5.980       41
    5.995       47
    6.010       44
    6.025       41
    6.040       41
    6.055       40
    6.070       48
    6.085       47
    6.100       47
    6.115       43
    6.130       38
    6.145       49
    6.160       52
    6.175       52
    6.190       42
    6.205       38
    6.220       55
    6.235       52
    6.250       54
    6.265       44
    6.280       59
    6.295       56
    6.310       65
    6.325       61
    6.340       64
    6.355       74
    6.370       76
    6.385       97
    6.400       98
    6.415       95
    6.430      120
    6.445      122
    6.460      101
    6.475      111
    6.490      121
    6.505      143
    6.520      143
    6.535      173
    6.550      197
    6.565      203
    6.580      228
    6.595      317
    6.610      380
    6.625      319
    6.640      296
    6.655      337
    6.670      302
    6.685      197
    6.700      145
    6.715       85
    6.730       68
    6.745       56
    6.760       45
    6.775       43
    6.790       46
    6.805       42
    6.820       36
    6.835       35
    6.850       36
    6.865       40
    6.880       55
    6.895       41
    6.910       44
    6.925       48
    6.940       31
    6.955       39
    6.970       46
    6.985       43
    7.000       47
    7.015       45
    7.030       40
    7.045       61
    7.060       55
    7.075       48
    7.090       59
    7.105       60
    7.120       61
    7.135       51
    7.150       62
    7.165       95
    7.180      103
    7.195       93
    7.210       62
    7.225       49
    7.240       44
    7.255       41
    7.270       41
    7.285       36
    7.300       30
    7.315       44
    7.330       42
    7.345       40
    7.360       39
    7.375       39
    7.390       40
    7.405       33
    7.420       32
    7.435       35
    7.450       36
    7.465       27
    7.480       34
    7.495       42
    7.510       57
    7.525       40
    7.540       42
    7.555       40
    7.570       31
    7.585       32
    7.600       43
    7.615       48
    7.630       49
    7.645       61
    7.660       47
    7.675       47
    7.690       47
    7.705       46
    7.720       57
    7.735       49
    7.750       39
    7.765       45
    7.780       41
    7.795       41
    7.810       46
    7.825       38
    7.840       41
    7.855       47
    7.870       48
    7.885       49
    7.900       43
    7.915       44
    7.930       41
    7.945       42
    7.960       42
    7.975       37
    7.990       38
    8.005       45
    8.020       46
    8.035       48
    8.050       58
    8.065       40
    8.080       38
    8.095       40
    8.110       40
    8.125       50
    8.140       52
    8.155       42
    8.170       45
    8.185       37
    8.200       33
    8.215       38
    8.230       41
    8.245       47
    8.260       56
    8.275       52
    8.290       39
    8.305       40
    8.320       37
    8.335       33
    8.350       43
    8.365       43
    8.380       47
    8.395       48
    8.410       37
    8.425       41
    8.440       52
    8.455       44
    8.470       37
    8.485       46
    8.500       57
    8.515       55
    8.530       49
    8.545       46
    8.560       44
    8.575       48
    8.590       45
    8.605       49
    8.620       54
    8.635       41
    8.650       36
    8.665       46
    8.680       46
    8.695       34
    8.710       46
    8.725       43
    8.740       48
    8.755       47
    8.770       42
    8.785       42
    8.800       43
    8.815       41
    8.830       47
    8.845       34
    8.860       42
    8.875       44
    8.890       39
    8.905       42
    8.920       51
    8.935       45
    8.950       48
    8.965       48
    8.980       49
    8.995       41
    9.010       53
    9.025       42
    9.040       46
    9.055       53
    9.070       47
    9.085       56
    9.100       47
    9.115       45
    9.130       42
    9.145       46
    9.160       45
    9.175       42
    9.190       42
    9.205       44
    9.220       46
    9.235       37
    9.250       56
    9.265       39
    9.280       53
    9.295       55
    9.310       54
    9.325       47
    9.340       46
    9.355       44
    9.370       47
    9.385       50
    9.400       47
    9.415       41
    9.430       47
    9.445       48
    9.460       52
    9.475       44
    9.490       50
    9.505       55
    9.520       50
    9.535       53
    9.550       48
    9.565       45
    9.580       44
    9.595       39
    9.610       52
    9.625       43
    9.640       37
    9.655       51
    9.670       53
    9.685       44
    9.700       45
    9.715       46
    9.730       49
    9.745       62
    9.760       55
    9.775       37
    9.790       40
    9.805       55
    9.820       47
    9.835       43
    9.850       51
    9.865       40
    9.880       52
    9.895       60
    9.910       59
    9.925       55
    9.940       53
    9.955       50
    9.970       49
    9.985       43
   10.000       43
   10.015       40
   10.030       39
   10.045       52
   10.060       44
   10.075       41
   10.090       41
   10.105       47
   10.120       54
   10.135       39
   10.150       43
   10.165       39
   10.180       49
   10.195       42
   10.210       45
   10.225       46
   10.240       39
   10.255       54
   10.270       54
   10.285       59
   10.300       50
   10.315       46
   10.330       43
   10.345       55
   10.360       63
   10.375       64
   10.390       48
   10.405       54
   10.420       54
   10.435       48
   10.450       59
   10.465       73
   10.480       77
   10.495       91
   10.510       79
   10.525       63
   10.540       61
   10.555       57
   10.570       55
   10.585       53
   10.600       46
   10.615       59
   10.630       72
   10.645       60
   10.660       67
   10.675       72
   10.690       74
   10.705       86
   10.720       97
   10.735      101
   10.750      112
   10.765      122
   10.780      138
   10.795      138
   10.810      130
   10.825      138
   10.840      190
   10.855      243
   10.870      235
   10.885      197
   10.900      155
   10.915      106
   10.930       71
   10.945       54
   10.960       55
   10.975       56
   10.990       58
   11.005       50
   11.020       45
   11.035       51
   11.050       49
   11.065       49
   11.080       49
   11.095       42
   11.110       43
   11.125       53
   11.140       59
   11.155       65
   11.170       63
   11.185       68
   11.200       66
   11.215       67
   11.230       86
   11.245       90
   11.260       79
   11.275       71
   11.290       72
   11.305       52
   11.320       50
   11.335       68
   11.350       48
   11.365       59
   11.380       66
   11.395       65
   11.410       60
   11.425       65
   11.440       54
   11.455       52
   11.470       62
   11.485       56
   11.500       54
   11.515       52
   11.530       46
   11.545       49
   11.560       41
   11.575       41
   11.590       54
   11.605       48
   11.620       45
   11.635       49
   11.650       45
   11.665       43
   11.680       45
   11.695       60
   11.710       66
   11.725       51
   11.740       65
   11.755       67
   11.770       50
   11.785       66
   11.800       81
   11.815       81
   11.830       77
   11.845       90
   11.860       95
   11.875       81
   11.890      107
   11.905       88
   11.920       82
   11.935       74
   11.950       67
   11.965       66
   11.980       81
   11.995       66
   12.010       59
   12.025       54
   12.040       57
   12.055       60
   12.070       52
   12.085       51
   12.100       49
   12.115       54
   12.130       50
   12.145       50
   12.160       46
   12.175       52
   12.190       53
   12.205       59
   12.220       51
   12.235       48
   12.250       56
   12.265       46
   12.280       55
   12.295       47
   12.310       51
   12.325       52
   12.340       68
   12.355       46
   12.370       51
   12.385       59
   12.400       51
   12.415       54
   12.430       55
   12.445       54
   12.460       49
   12.475       55
   12.490       62
   12.505       68
   12.520       71
   12.535       76
   12.550       77
   12.565       87
   12.580       94
   12.595      107
   12.610      115
   12.625      137
   12.640      161
   12.655      174
   12.670      237
   12.685      259
   12.700      245
   12.715      229
   12.730      191
   12.745      171
   12.760      172
   12.775      146
   12.790      139
   12.805      116
   12.820       72
   12.835       55
   12.850       52
   12.865       58
   12.880       57
   12.895       59
   12.910       65
   12.925       64
   12.940       73
   12.955       78
   12.970       83
   12.985       96
   13.000       89
   13.015      109
   13.030      140
   13.045      152
   13.060      185
   13.075      195
   13.090      161
   13.105      150
   13.120      155
   13.135      148
   13.150      171
   13.165      213
   13.180      253
   13.195      275
   13.210      318
   13.225      379
   13.240      470
   13.255      570
   13.270      509
   13.285      479
   13.300      393
   13.315      410
   13.330      530
   13.345      661
   13.360      889
   13.375      846
   13.390      604
   13.405      360
   13.420      196
   13.435      137
   13.450      122
   13.465       94
   13.480      108
   13.495      110
   13.510      116
   13.525      131
   13.540      150
   13.555      177
   13.570      199
   13.585      249
   13.600      260
   13.615      273
   13.630      279
   13.645      276
   13.660      200
   13.675      149
   13.690      109
   13.705       82
   13.720       66
   13.735       61
   13.750       75
   13.765       64
   13.780       64
   13.795       65
   13.810       63
   13.825       77
   13.840       68
   13.855       78
   13.870       88
   13.885       89
   13.900       75
   13.915       69
   13.930       60
   13.945       62
   13.960       50
   13.975       49
   13.990       45
   14.005       51
   14.020       45
   14.035       61
   14.050       68
   14.065       75
   14.080       68
   14.095       67
   14.110       66
   14.125       66
   14.140       66
   14.155       56
   14.170       55
   14.185       61
   14.200       76
   14.215       78
   14.230       77
   14.245       78
   14.260      108
   14.275      108
   14.290      126
   14.305      130
   14.320      177
   14.335      223
   14.350      245
   14.365      221
   14.380      177
   14.395      161
   14.410      163
   14.425      150
   14.440      145
   14.455      140
   14.470      137
   14.485      144
   14.500      155
   14.515      180
   14.530      212
   14.545      263
   14.560      272
   14.575      224
   14.590      155
   14.605      110
   14.620       94
   14.635       82
   14.650       67
   14.665       63
   14.680       57
   14.695       64
   14.710       54
   14.725       76
   14.740       69
   14.755       71
   14.770       66
   14.785       69
   14.800       48
   14.815       71
   14.830       63
   14.845       69
   14.860       67
   14.875       77
   14.890       64
   14.905       69
   14.920       75
   14.935       65
   14.950       89
   14.965      104
   14.980      119
   14.995      151
   15.010      184
   15.025      245
   15.040      237
   15.055      279
   15.070      347
   15.085      392
   15.100      456
   15.115      575
   15.130      704
   15.145      697
   15.160      554
   15.175      345
   15.190      253
   15.205      152
   15.220      127
   15.235      132
   15.250      138
   15.265      153
   15.280      154
   15.295      160
   15.310      172
   15.325      184
   15.340      177
   15.355      200
   15.370      222
   15.385      214
   15.400      197
   15.415      189
   15.430      164
   15.445      134
   15.460      120
   15.475      115
   15.490      111
   15.505      106
   15.520      114
   15.535      133
   15.550      134
   15.565      154
   15.580      191
   15.595      224
   15.610      314
   15.625      360
   15.640      394
   15.655      309
   15.670      235
   15.685      198
   15.700      178
   15.715      180
   15.730      179
   15.745      152
   15.760      146
   15.775      142
   15.790      181
   15.805      206
   15.820      200
   15.835      209
   15.850      197
   15.865      156
   15.880      128
   15.895       96
   15.910       90
   15.925       75
   15.940       74
   15.955       71
   15.970       68
   15.985       70
   16.000       62
   16.015       71
   16.030       77
   16.045       95
   16.060       99
   16.075      124
   16.090      145
   16.105      138
   16.120      163
   16.135      193
   16.150      223
   16.165      239
   16.180      229
   16.195      245
   16.210      251
   16.225      224
   16.240      153
   16.255      109
   16.270       92
   16.285       91
   16.300      112
   16.315      112
   16.330      125
   16.345      130
   16.360      124
   16.375      148
   16.390      156
   16.405      184
   16.420      222
   16.435      262
   16.450      309
   16.465      420
   16.480      458
   16.495      452
   16.510      384
   16.525      309
   16.540      256
   16.555      247
   16.570      269
   16.585      305
   16.600      301
   16.615      271
   16.630      235
   16.645      246
   16.660      282
   16.675      239
   16.690      221
   16.705      228
   16.720      242
   16.735      276
   16.750      272
   16.765      266
   16.780      247
   16.795      222
   16.810      238
   16.825      261
   16.840      230
   16.855      225
   16.870      197
   16.885      162
   16.900      128
   16.915      100
   16.930      101
   16.945       99
   16.960      102
   16.975      106
   16.990      107
   17.005      129
   17.020      133
   17.035      153
   17.050      189
   17.065      214
   17.080      235
   17.095      243
   17.110      231
   17.125      219
   17.140      177
   17.155      167
   17.170      169
   17.185      189
   17.200      248
   17.215      256
   17.230      293
   17.245      325
   17.260      333
   17.275      352
   17.290      306
   17.305      238
   17.320      166
   17.335      140
   17.350      124
   17.365      122
   17.380      122
   17.395      118
   17.410      122
   17.425      126
   17.440      105
   17.455      108
   17.470      127
   17.485      125
   17.500      143
   17.515      182
   17.530      185
   17.545      209
   17.560      182
   17.575      160
   17.590      110
   17.605       91
   17.620       91
   17.635       89
   17.650       87
   17.665       91
   17.680       85
   17.695      101
   17.710      115
   17.725      110
   17.740      114
   17.755      101
   17.770       79
   17.785       89
   17.800      108
   17.815      112
   17.830      109
   17.845      103
   17.860      107
   17.875       97
   17.890      103
   17.905       93
   17.920       81
   17.935       77
   17.950       67
   17.965       71
   17.980       67
   17.995       82
   18.010       74
   18.025       61
   18.040       75
   18.055       80
   18.070       78
   18.085       81
   18.100       82
   18.115       63
   18.130       57
   18.145       70
   18.160       56
   18.175       70
   18.190       80
   18.205       82
   18.220       85
   18.235       93
   18.250      126
   18.265      118
   18.280      128
   18.295      147
   18.310      187
   18.325      194
   18.340      225
   18.355      231
   18.370      220
   18.385      186
   18.400      155
   18.415      122
   18.430      102
   18.445       78
   18.460       87
   18.475       70
   18.490       65
   18.505       82
   18.520       78
   18.535       77
   18.550       75
   18.565       82
   18.580      106
   18.595      104
   18.610      129
   18.625      150
   18.640      139
   18.655      123
   18.670      133
   18.685      112
   18.700      144
   18.715      157
   18.730      126
   18.745      143
   18.760      106
   18.775       94
   18.790      101
   18.805       80
   18.820       80
   18.835       80
   18.850       67
   18.865       71
   18.880       79
   18.895       81
   18.910       98
   18.925      101
   18.940       99
   18.955      100
   18.970       95
   18.985       84
   19.000       70
   19.015       87
   19.030      108
   19.045      101
   19.060       86
   19.075       86
   19.090       88
   19.105       72
   19.120       77
   19.135       68
   19.150       72
   19.165       75
   19.180       66
   19.195       56
   19.210       58
   19.225       67
   19.240       74
   19.255       51
   19.270       59
   19.285       59
   19.300       61
   19.315       62
   19.330       67
   19.345       54
   19.360       53
   19.375       81
   19.390       76
   19.405       77
   19.420       77
   19.435       73
   19.450       73
   19.465       73
   19.480       76
   19.495       69
   19.510       65
   19.525       61
   19.540       87
   19.555       92
   19.570      101
   19.585      115
   19.600      140
   19.615      139
   19.630      149
   19.645      145
   19.660      150
   19.675      134
   19.690      129
   19.705      124
   19.720      135
   19.735       95
   19.750       88
   19.765       81
   19.780       79
   19.795       83
   19.810       97
   19.825      105
   19.840      118
   19.855      135
   19.870      167
   19.885      198
   19.900      230
   19.915      290
   19.930      355
   19.945      457
   19.960      485
   19.975      394
   19.990      328
   20.005      257
   20.020      217
   20.035      226
   20.050      259
   20.065      291
   20.080      300
   20.095      248
   20.110      219
   20.125      179
   20.140      147
   20.155      132
   20.170      110
   20.185       86
   20.200       74
   20.215       84
   20.230       89
   20.245       93
   20.260      100
   20.275      112
   20.290       94
   20.305       85
   20.320       69
   20.335       66
   20.350       69
   20.365       64
   20.380       63
   20.395       55
   20.410       61
   20.425       75
   20.440       86
   20.455       83
   20.470       63
   20.485       77
   20.500       77
   20.515       75
   20.530       73
   20.545       64
   20.560       72
   20.575       75
   20.590       76
   20.605       77
   20.620       74
   20.635       74
   20.650       84
   20.665       82
   20.680       91
   20.695       84
   20.710       85
   20.725       78
   20.740       78
   20.755       82
   20.770      109
   20.785      112
   20.800      126
   20.815      109
   20.830      109
   20.845      113
   20.860      130
   20.875      113
   20.890      112
   20.905      135
   20.920      140
   20.935      151
   20.950      122
   20.965       85
   20.980       82
   20.995       67
   21.010       82
   21.025       75
   21.040       73
   21.055       71
   21.070       72
   21.085       82
   21.100       70
   21.115       67
   21.130       66
   21.145       65
   21.160       70
   21.175       54
   21.190       58
   21.205       71
   21.220       76
   21.235       82
   21.250       81
   21.265       85
   21.280      105
   21.295      103
   21.310      102
   21.325       80
   21.340       75
   21.355       64
   21.370       76
   21.385       70
   21.400       56
   21.415       62
   21.430       64
   21.445       60
   21.460       63
   21.475       67
   21.490       78
   21.505       70
   21.520       68
   21.535       76
   21.550       77
   21.565       81
   21.580       88
   21.595       96
   21.610       99
   21.625      106
   21.640      136
   21.655      167
   21.670      180
   21.685      146
   21.700      148
   21.715      117
   21.730      131
   21.745      121
   21.760      141
   21.775      167
   21.790      219
   21.805      278
   21.820      349
   21.835      400
   21.850      385
   21.865      342
   21.880      270
   21.895      140
   21.910      122
   21.925      116
   21.940      115
   21.955       91
   21.970       77
   21.985       76
   22.000       87
   22.015       74
   22.030       73
   22.045       72
   22.060       62
   22.075       73
   22.090       57
   22.105       54
   22.120       61
   22.135       61
   22.150       70
   22.165       66
   22.180       52
   22.195       72
   22.210       73
   22.225       66
   22.240       67
   22.255       56
   22.270       62
   22.285       56
   22.300       72
   22.315       79
   22.330       67
   22.345       81
   22.360       96
   22.375       88
   22.390       82
   22.405       76
   22.420       99
   22.435       92
   22.450       90
   22.465      100
   22.480       71
   22.495       59
   22.510       64
   22.525       53
   22.540       61
   22.555       68
   22.570       72
   22.585       77
   22.600       83
   22.615       86
   22.630       69
   22.645       94
   22.660      111
   22.675      112
   22.690      121
   22.705      104
   22.720      108
   22.735       94
   22.750       81
   22.765       84
   22.780       86
   22.795       79
   22.810       96
   22.825      124
   22.840      129
   22.855      131
   22.870      137
   22.885      128
   22.900      115
   22.915      115
   22.930      108
   22.945      103
   22.960       87
   22.975       82
   22.990       84
   23.005       76
   23.020       65
   23.035       63
   23.050       65
   23.065       75
   23.080       67
   23.095       60
   23.110       81
   23.125       75
   23.140       62
   23.155       81
   23.170       90
   23.185       93
   23.200       89
   23.215      100
   23.230      100
   23.245      102
   23.260       92
   23.275       77
   23.290       75
   23.305       54
   23.320       57
   23.335       66
   23.350       67
   23.365       64
   23.380       67
   23.395       69
   23.410       54
   23.425       63
   23.440       60
   23.455       64
   23.470       68
   23.485       65
   23.500       65
   23.515       51
   23.530       55
   23.545       56
   23.560       65
   23.575       63
   23.590       56
   23.605       68
   23.620       53
   23.635       55
   23.650       73
   23.665       79
   23.680       58
   23.695       65
   23.710       72
   23.725       53
   23.740       53
   23.755       70
   23.770       54
   23.785       50
   23.800       52
   23.815       72
   23.830       74
   23.845       87
   23.860       99
   23.875       77
   23.890       71
   23.905       68
   23.920       74
   23.935       65
   23.950       61
   23.965       60
   23.980       68
   23.995       85
   24.010       82
   24.025       89
   24.040       95
   24.055       81
   24.070       69
   24.085       77
   24.100       63
   24.115       59
   24.130       55
   24.145       49
   24.160       55
   24.175       56
   24.190       58
   24.205       66
   24.220       68
   24.235       59
   24.250       68
   24.265       74
   24.280       70
   24.295       73
   24.310       69
   24.325       76
   24.340       71
   24.355       64
   24.370       67
   24.385       60
   24.400       51
   24.415       54
   24.430       63
   24.445       61
   24.460       60
   24.475       62
   24.490       56
   24.505       51
   24.520       55
   24.535       68
   24.550       57
   24.565       62
   24.580       65
   24.595       64
   24.610       83
   24.625       98
   24.640      100
   24.655       90
   24.670      103
   24.685       97
   24.700       97
   24.715       88
   24.730       81
   24.745       78
   24.760       67
   24.775       81
   24.790       67
   24.805       58
   24.820       64
   24.835       61
   24.850       61
   24.865       77
   24.880       56
   24.895       52
   24.910       56
   24.925       63
   24.940       68
   24.955       69
   24.970       78
   24.985       90
   25.000       88
   25.015       89
   25.030       99
   25.045       94
   25.060       93
   25.075       87
   25.090       83
   25.105       64
   25.120       67
   25.135       65
   25.150       66
   25.165       74
   25.180       70
   25.195       63
   25.210       69
   25.225       79
   25.240       86
   25.255       64
   25.270       66
   25.285       73
   25.300       71
   25.315       63
   25.330       61
   25.345       57
   25.360       80
   25.375       70
   25.390       70
   25.405       59
   25.420       87
   25.435      105
   25.450       99
   25.465       95
   25.480       94
   25.495       75
   25.510       79
   25.525       72
   25.540       68
   25.555       71
   25.570       80
   25.585       65
   25.600       83
   25.615       70
   25.630       68
   25.645       79
   25.660       96
   25.675       93
   25.690      107
   25.705      104
   25.720      113
   25.735      117
   25.750      133
   25.765      101
   25.780      100
   25.795       91
   25.810       75
   25.825       98
   25.840       89
   25.855       76
   25.870       84
   25.885       87
   25.900       94
   25.915      101
   25.930      126
   25.945      120
   25.960      101
   25.975       98
   25.990       94
   26.005       78
   26.020       75
   26.035       86
   26.050       84
   26.065       79
   26.080       74
   26.095       69
   26.110       69
   26.125       76
   26.140       74
   26.155       61
   26.170       74
   26.185       89
   26.200       92
   26.215      104
   26.230      102
   26.245       97
   26.260       81
   26.275       75
   26.290       64
   26.305       70
   26.320       63
   26.335       75
   26.350       81
   26.365       72
   26.380       73
   26.395       81
   26.410       71
   26.425       83
   26.440       82
   26.455       74
   26.470       65
   26.485       60
   26.500       66
   26.515       69
   26.530       67
   26.545       57
   26.560       61
   26.575       57
   26.590       69
   26.605       75
   26.620       59
   26.635       53
   26.650       70
   26.665       66
   26.680       91
   26.695       79
   26.710       81
   26.725       89
   26.740       57
   26.755       49
   26.770       52
   26.785       61
   26.800       52
   26.815       65
   26.830       78
   26.845       67
   26.860       74
   26.875       66
   26.890       75
   26.905       83
   26.920       99
   26.935      101
   26.950      101
   26.965      113
   26.980      108
   26.995      122
   27.010      113
   27.025      110
   27.040       93
   27.055       95
   27.070       81
   27.085       75
   27.100       71
   27.115       84
   27.130       72
   27.145       68
   27.160       71
   27.175       68
   27.190       67
   27.205       54
   27.220       57
   27.235       62
   27.250       64
   27.265       67
   27.280       66
   27.295       80
   27.310       76
   27.325       63
   27.340       60
   27.355       77
   27.370       80
   27.385       63
   27.400       73
   27.415       79
   27.430       78
   27.445       72
   27.460       79
   27.475      104
   27.490       91
   27.505       89
   27.520       80
   27.535       85
   27.550       94
   27.565      104
   27.580      120
   27.595      116
   27.610      128
   27.625      140
   27.640      149
   27.655      156
   27.670      135
   27.685      137
   27.700      120
   27.715       94
   27.730      117
   27.745       73
   27.760       78
   27.775       76
   27.790       75
   27.805       73
   27.820       74
   27.835       74
   27.850       83
   27.865       91
   27.880       79
   27.895      104
   27.910      106
   27.925      103
   27.940       96
   27.955       93
   27.970       94
   27.985       91
   28.000       83
   28.015       71
   28.030       80
   28.045       80
   28.060       89
   28.075       95
   28.090       86
   28.105       81
   28.120       84
   28.135       80
   28.150       73
   28.165       78
   28.180       85
   28.195       81
   28.210       85
   28.225       78
   28.240       84
   28.255       75
   28.270       70
   28.285       77
   28.300       78
   28.315       83
   28.330       79
   28.345       96
   28.360       92
   28.375       79
   28.390       84
   28.405       79
   28.420      104
   28.435      104
   28.450       91
   28.465       88
   28.480       81
   28.495       77
   28.510       83
   28.525       78
   28.540       70
   28.555       66
   28.570       57
   28.585       79
   28.600       62
   28.615       53
   28.630       61
   28.645       65
   28.660       72
   28.675       80
   28.690       77
   28.705       77
   28.720       68
   28.735       77
   28.750       74
   28.765       74
   28.780       79
   28.795       66
   28.810       76
   28.825       68
   28.840       74
   28.855       78
   28.870       76
   28.885       80
   28.900       80
   28.915       78
   28.930       74
   28.945       82
   28.960       85
   28.975       81
   28.990       78
   29.005       85
   29.020       81
   29.035       79
   29.050       91
   29.065      109
   29.080      106
   29.095       95
   29.110       92
   29.125       86
   29.140       83
   29.155       71
   29.170       75
   29.185       73
   29.200       87
   29.215       84
   29.230       68
   29.245       73
   29.260       73
   29.275       75
   29.290       81
   29.305       81
   29.320       73
   29.335       68
   29.350       70
   29.365       69
   29.380       69
   29.395       66
   29.410       73
   29.425       73
   29.440       67
   29.455       65
   29.470       59
   29.485       63
   29.500       71
   29.515       77
   29.530       62
   29.545       66
   29.560       77
   29.575       80
   29.590       82
   29.605       76
   29.620       93
   29.635       91
   29.650       85
   29.665       81
   29.680       76
   29.695       87
   29.710      101
   29.725       95
   29.740       89
   29.755       91
   29.770      100
   29.785       92
   29.800       85
   29.815       89
   29.830       73
   29.845       71
   29.860       75
   29.875       66
   29.890       74
   29.905       74
   29.920       69
   29.935       67
   29.950       68
   29.965       49
   29.980       65
   29.995       50
   30.010       50
   30.025       57
   30.040       68
   30.055       54
   30.070       51
   30.085       60
   30.100       66
   30.115       59
   30.130       57
   30.145       65
   30.160       60
   30.175       65
   30.190       56
   30.205       56
   30.220       62
   30.235       60
   30.250       68
   30.265       64
   30.280       63
   30.295       59
   30.310       67
   30.325       69
   30.340       55
   30.355       79
   30.370       75
   30.385       76
   30.400       58
   30.415       71
   30.430       78
   30.445       66
   30.460       67
   30.475       68
   30.490       59
   30.505       70
   30.520       74
   30.535       81
   30.550       63
   30.565       71
   30.580       78
   30.595       83
   30.610       72
   30.625       70
   30.640       90
   30.655       77
   30.670       65
   30.685       64
   30.700       79
   30.715       66
   30.730       88
   30.745       69
   30.760       84
   30.775       68
   30.790       64
   30.805       73
   30.820       68
   30.835       66
   30.850       67
   30.865       68
   30.880       66
   30.895       75
   30.910       74
   30.925       76
   30.940       75
   30.955       76
   30.970       75
   30.985       77
   31.000       79
   31.015       76
   31.030       75
   31.045       86
   31.060       89
   31.075       72
   31.090       77
   31.105       76
   31.120       65
   31.135       67
   31.150       63
   31.165       65
   31.180       84
   31.195       84
   31.210       74
   31.225       73
   31.240       74
   31.255       72
   31.270       60
   31.285       70
   31.300       86
   31.315       69
   31.330       62
   31.345       78
   31.360       70
   31.375       62
   31.390       70
   31.405       79
   31.420       84
   31.435       76
   31.450       78
   31.465       59
   31.480       67
   31.495       59
   31.510       66
   31.525       64
   31.540       66
   31.555       86
   31.570       78
   31.585       68
   31.600       82
   31.615       82
   31.630       73
   31.645       77
   31.660       71
   31.675       76
   31.690       69
   31.705       62
   31.720       81
   31.735       83
   31.750       87
   31.765       76
   31.780       79
   31.795       89
   31.810       90
   31.825       95
   31.840       83
   31.855       88
   31.870       74
   31.885       82
   31.900       92
   31.915       77
   31.930       78
   31.945       84
   31.960       89
   31.975       72
   31.990       71
   32.005       80
   32.020       74
   32.035       68
   32.050       65
   32.065       68
   32.080       71
   32.095       71
   32.110       76
   32.125       80
   32.140       73
   32.155       77
   32.170       85
   32.185       84
   32.200       72
   32.215       72
   32.230       72
   32.245       68
   32.260       63
   32.275       72
   32.290       77
   32.305       62
   32.320       60
   32.335       64
   32.350       67
   32.365       67
   32.380       68
   32.395       67
   32.410       67
   32.425       52
   32.440       57
   32.455       57
   32.470       63
   32.485       68
   32.500       77
   32.515       66
   32.530       53
   32.545       60
   32.560       55
   32.575       62
   32.590       61
   32.605       54
   32.620       66
   32.635       62
   32.650       67
   32.665       56
   32.680       65
   32.695       62
   32.710       76
   32.725       57
   32.740       66
   32.755       68
   32.770       50
   32.785       59
   32.800       67
   32.815       56
   32.830       65
   32.845       63
   32.860       50
   32.875       49
   32.890       63
   32.905       63
   32.920       78
   32.935       71
   32.950       68
   32.965       71
   32.980       65
   32.995       93
   33.010       84
   33.025       77
   33.040       78
   33.055       73
   33.070       63
   33.085       74
   33.100       63
   33.115       70
   33.130       67
   33.145       61
   33.160       62
   33.175       77
   33.190       79
   33.205       64
   33.220       65
   33.235       68
   33.250       63
   33.265       61
   33.280       54
   33.295       62
   33.310       64
   33.325       61
   33.340       78
   33.355       69
   33.370       69
   33.385       65
   33.400       62
   33.415       74
   33.430       67
   33.445       67
   33.460       82
   33.475       71
   33.490       78
   33.505       75
   33.520       82
   33.535       88
   33.550      106
   33.565       83
   33.580       83
   33.595       75
   33.610       78
   33.625       76
   33.640       89
   33.655       81
   33.670       79
   33.685       71
   33.700       80
   33.715       79
   33.730       62
   33.745       70
   33.760       62
   33.775       63
   33.790       70
   33.805       68
   33.820       77
   33.835       77
   33.850       84
   33.865       77
   33.880       88
   33.895       97
   33.910       81
   33.925       84
   33.940       74
   33.955       64
   33.970       80
   33.985       76
   34.000       70
   34.015       72
   34.030       61
   34.045       75
   34.060       83
   34.075       72
   34.090       69
   34.105       76
   34.120       67
   34.135       78
   34.150       68
   34.165       69
   34.180       68
   34.195       57
   34.210       60
   34.225       60
   34.240       55
   34.255       49
   34.270       58
   34.285       54
   34.300       58
   34.315       68
   34.330       56
   34.345       56
   34.360       62
   34.375       56
   34.390       52
   34.405       53
   34.420       64
   34.435       62
   34.450       57
   34.465       53
   34.480       64
   34.495       61
   34.510       50
   34.525       60
   34.540       60
   34.555       64
   34.570       74
   34.585       69
   34.600       68
   34.615       63
   34.630       58
   34.645       65
   34.660       55
   34.675       52
   34.690       43
   34.705       56
   34.720       49
   34.735       47
   34.750       49
   34.765       53
   34.780       61
   34.795       69
   34.810       61
   34.825       59
   34.840       59
   34.855       52
   34.870       60
   34.885       71
   34.900       59
   34.915       54
   34.930       59
   34.945       61
   34.960       54
   34.975       50
   34.990       60
   35.005       64
   35.020       50
   35.035       50
   35.050       54
   35.065       58
   35.080       72
   35.095       63
   35.110       59
   35.125       61
   35.140       66
   35.155       71
   35.170       58
   35.185       55
   35.200       57
   35.215       53
   35.230       52
   35.245       53
   35.260       55
   35.275       69
   35.290       66
   35.305       66
   35.320       66
   35.335       59
   35.350       60
   35.365       66
   35.380       61
   35.395       69
   35.410       65
   35.425       73
   35.440       56
   35.455       61
   35.470       70
   35.485       75
   35.500       73
   35.515       85
   35.530       86
   35.545       68
   35.560       71
   35.575       77
   35.590       76
   35.605       77
   35.620       82
   35.635       74
   35.650       94
   35.665       84
   35.680       70
   35.695       63
   35.710       58
   35.725       70
   35.740       56
   35.755       64
   35.770       59
   35.785       52
   35.800       50
   35.815       54
   35.830       65
   35.845       65
   35.860       57
   35.875       56
   35.890       58
   35.905       55
   35.920       57
   35.935       70
   35.950       55
   35.965       62
   35.980       55
   35.995       50
   36.010       53
   36.025       58
   36.040       75
   36.055       59
   36.070       57
   36.085       60
   36.100       47
   36.115       68
   36.130       53
   36.145       53
   36.160       50
   36.175       57
   36.190       54
   36.205       53
   36.220       43
   36.235       52
   36.250       60
   36.265       64
   36.280       62
   36.295       61
   36.310       67
   36.325       53
   36.340       51
   36.355       54
   36.370       59
   36.385       54
   36.400       53
   36.415       65
   36.430       58
   36.445       48
   36.460       51
   36.475       44
   36.490       56
   36.505       66
   36.520       65
   36.535       58
   36.550       62
   36.565       57
   36.580       65
   36.595       58
   36.610       62
   36.625       46
   36.640       49
   36.655       55
   36.670       59
   36.685       52
   36.700       62
   36.715       55
   36.730       60
   36.745       63
   36.760       56
   36.775       63
   36.790       66
   36.805       61
   36.820       50
   36.835       55
   36.850       62
   36.865       60
   36.880       73
   36.895       63
   36.910       62
   36.925       67
   36.940       64
   36.955       52
   36.970       57
   36.985       65
   37.000       60
   37.015       54
   37.030       58
   37.045       58
   37.060       58
   37.075       69
   37.090       67
   37.105       64
   37.120       61
   37.135       59
   37.150       51
   37.165       64
   37.180       71
   37.195       66
   37.210       64
   37.225       56
   37.240       66
   37.255       53
   37.270       59
   37.285       64
   37.300       65
   37.315       61
   37.330       65
   37.345       78
   37.360       67
   37.375       79
   37.390       60
   37.405       53
   37.420       52
   37.435       56
   37.450       44
   37.465       45
   37.480       45
   37.495       56
   37.510       57
   37.525       57
   37.540       41
   37.555       54
   37.570       56
   37.585       47
   37.600       45
   37.615       42
   37.630       52
   37.645       55
   37.660       49
   37.675       52
   37.690       57
   37.705       50
   37.720       60
   37.735       60
   37.750       57
   37.765       53
   37.780       52
   37.795       56
   37.810       60
   37.825       51
   37.840       60
   37.855       75
   37.870       61
   37.885       48
   37.900       56
   37.915       58
   37.930       55
   37.945       50
   37.960       52
   37.975       55
   37.990       49
   38.005       63
   38.020       55
   38.035       60
   38.050       55
   38.065       61
   38.080       59
   38.095       66
   38.110       61
   38.125       61
   38.140       63
   38.155       60
   38.170       55
   38.185       53
   38.200       50
   38.215       57
   38.230       56
   38.245       49
   38.260       62
   38.275       60
   38.290       52
   38.305       53
   38.320       54
   38.335       61
   38.350       49
   38.365       58
   38.380       59
   38.395       55
   38.410       59
   38.425       69
   38.440       68
   38.455       63
   38.470       56
   38.485       61
   38.500       49
   38.515       60
   38.530       59
   38.545       49
   38.560       47
   38.575       50
   38.590       55
   38.605       47
   38.620       54
   38.635       52
   38.650       60
   38.665       48
   38.680       61
   38.695       50
   38.710       65
   38.725       62
   38.740       52
   38.755       56
   38.770       51
   38.785       47
   38.800       53
   38.815       56
   38.830       53
   38.845       59
   38.860       57
   38.875       54
   38.890       56
   38.905       58
   38.920       54
   38.935       71
   38.950       55
   38.965       54
   38.980       53
   38.995       52
   39.010       45
   39.025       52
   39.040       54
   39.055       56
   39.070       52
   39.085       51
   39.100       49
   39.115       45
   39.130       42
   39.145       51
   39.160       59
   39.175       49
   39.190       51
   39.205       57
   39.220       52
   39.235       60
   39.250       60
   39.265       48
   39.280       53
   39.295       49
   39.310       53
   39.325       42
   39.340       45
   39.355       52
   39.370       48
   39.385       40
   39.400       50
   39.415       49
   39.430       50
   39.445       50
   39.460       51
   39.475       53
   39.490       55
   39.505       48
   39.520       43
   39.535       48
   39.550       54
   39.565       53
   39.580       48
   39.595       46
   39.610       49
   39.625       43
   39.640       46
   39.655       58
   39.670       51
   39.685       58
   39.700       42
   39.715       50
   39.730       43
   39.745       44
   39.760       45
   39.775       46
   39.790       60
   39.805       51
   39.820       39
   39.835       63
   39.850       53
   39.865       55
   39.880       64
   39.895       71
   39.910       58
   39.925       51
   39.940       46
   39.955       46
   39.970       58
   39.985       63
   40.000       58
   40.015       53
   40.030       46
   40.045       63
   40.060       40
   40.075       43
   40.090       45
   40.105       48
   40.120       50
   40.135       40
   40.150       44
   40.165       53
   40.180       37
   40.195       48
   40.210       43
   40.225       52
   40.240       54
   40.255       51
   40.270       47
   40.285       49
   40.300       59
   40.315       49
   40.330       50
   40.345       50
   40.360       50
   40.375       50
   40.390       48
   40.405       66
   40.420       66
   40.435       58
   40.450       57
   40.465       51
   40.480       51
   40.495       60
   40.510       53
   40.525       58
   40.540       59
   40.555       60
   40.570       55
   40.585       61
   40.600       57
   40.615       59
   40.630       54
   40.645       47
   40.660       58
   40.675       44
   40.690       43
   40.705       47
   40.720       62
   40.735       65
   40.750       62
   40.765       56
   40.780       47
   40.795       52
   40.810       52
   40.825       55
   40.840       62
   40.855       61
   40.870       55
   40.885       50
   40.900       47
   40.915       50
   40.930       44
   40.945       42
   40.960       42
   40.975       55
   40.990       48
   41.005       41
   41.020       47
   41.035       47
   41.050       60
   41.065       38
   41.080       43
   41.095       49
   41.110       49
   41.125       50
   41.140       58
   41.155       54
   41.170       46
   41.185       48
   41.200       46
   41.215       47
   41.230       54
   41.245       52
   41.260       53
   41.275       45
   41.290       38
   41.305       48
   41.320       46
   41.335       44
   41.350       47
   41.365       43
   41.380       47
   41.395       43
   41.410       41
   41.425       53
   41.440       50
   41.455       42
   41.470       49
   41.485       62
   41.500       54
   41.515       42
   41.530       42
   41.545       50
   41.560       58
   41.575       50
   41.590       44
   41.605       43
   41.620       47
   41.635       55
   41.650       51
   41.665       42
   41.680       53
   41.695       51
   41.710       50
   41.725       53
   41.740       43
   41.755       47
   41.770       53
   41.785       50
   41.800       51
   41.815       48
   41.830       57
   41.845       48
   41.860       43
   41.875       54
   41.890       43
   41.905       48
   41.920       51
   41.935       44
   41.950       54
   41.965       44
   41.980       42
   41.995       50
   42.010       48
   42.025       61
   42.040       51
   42.055       44
   42.070       37
   42.085       46
   42.100       49
   42.115       54
   42.130       46
   42.145       51
   42.160       49
   42.175       50
   42.190       47
   42.205       49
   42.220       45
   42.235       47
   42.250       47
   42.265       44
   42.280       50
   42.295       50
   42.310       50
   42.325       50
   42.340       51
   42.355       44
   42.370       60
   42.385       52
   42.400       47
   42.415       44
   42.430       53
   42.445       64
   42.460       51
   42.475       47
   42.490       34
   42.505       45
   42.520       51
   42.535       51
   42.550       55
   42.565       53
   42.580       53
   42.595       57
   42.610       44
   42.625       39
   42.640       55
   42.655       46
   42.670       46
   42.685       47
   42.700       52
   42.715       52
   42.730       48
   42.745       44
   42.760       42
   42.775       42
   42.790       41
   42.805       48
   42.820       44
   42.835       50
   42.850       47
   42.865       51
   42.880       47
   42.895       43
   42.910       47
   42.925       47
   42.940       51
   42.955       43
   42.970       40
   42.985       48
   43.000       47
   43.015       42
   43.030       49
   43.045       37
   43.060       48
   43.075       52
   43.090       52
   43.105       37
   43.120       41
   43.135       48
   43.150       40
   43.165       41
   43.180       40
   43.195       50
   43.210       49
   43.225       59
   43.240       51
   43.255       41
   43.270       44
   43.285       43
   43.300       44
   43.315       45
   43.330       41
   43.345       38
   43.360       50
   43.375       42
   43.390       39
   43.405       47
   43.420       48
   43.435       47
   43.450       45
   43.465       52
   43.480       46
   43.495       41
   43.510       50
   43.525       37
   43.540       36
   43.555       47
   43.570       39
   43.585       44
   43.600       45
   43.615       30
   43.630       42
   43.645       52
   43.660       44
   43.675       50
   43.690       47
   43.705       40
   43.720       46
   43.735       50
   43.750       61
   43.765       50
   43.780       49
   43.795       40
   43.810       47
   43.825       44
   43.840       46
   43.855       48
   43.870       42
   43.885       39
   43.900       37
   43.915       39
   43.930       44
   43.945       38
   43.960       42
   43.975       49
   43.990       53
   44.005       52
   44.020       38
   44.035       43
   44.050       49
   44.065       52
   44.080       55
   44.095       49
   44.110       45
   44.125       48
   44.140       41
   44.155       49
   44.170       49
   44.185       50
   44.200       48
   44.215       41
   44.230       43
   44.245       44
   44.260       44
   44.275       54
   44.290       44
   44.305       40
   44.320       43
   44.335       47
   44.350       47
   44.365       42
   44.380       38
   44.395       49
   44.410       51
   44.425       42
   44.440       42
   44.455       43
   44.470       50
   44.485       56
   44.500       46
   44.515       45
   44.530       53
   44.545       51
   44.560       45
   44.575       50
   44.590       44
   44.605       42
   44.620       38
   44.635       40
   44.650       41
   44.665       50
   44.680       36
   44.695       40
   44.710       41
   44.725       41
   44.740       34
   44.755       39
   44.770       48
   44.785       42
   44.800       57
   44.815       47
   44.830       49
   44.845       51
   44.860       49
   44.875       42
   44.890       50
   44.905       39
   44.920       44
   44.935       55
   44.950       51
   44.965       52
   44.980       45
   44.995       44
   45.010       40
   45.025       41
   45.040       49
   45.055       53
   45.070       58
   45.085       50
   45.100       61
   45.115       54
   45.130       52
   45.145       61
   45.160       65
   45.175       53
   45.190       60
   45.205       57
   45.220       41
   45.235       47
   45.250       51
   45.265       43
   45.280       43
   45.295       55
   45.310       48
   45.325       49
   45.340       53
   45.355       48
   45.370       58
   45.385       57
   45.400       50
   45.415       49
   45.430       42
   45.445       45
   45.460       48
   45.475       50
   45.490       38
   45.505       40
   45.520       44
   45.535       37
   45.550       45
   45.565       31
   45.580       47
   45.595       53
   45.610       54
   45.625       49
   45.640       50
   45.655       46
   45.670       45
   45.685       40
   45.700       59
   45.715       42
   45.730       34
   45.745       37
   45.760       39
   45.775       39
   45.790       45
   45.805       36
   45.820       33
   45.835       44
   45.850       42
   45.865       33
   45.880       41
   45.895       48
   45.910       39
   45.925       38
   45.940       41
   45.955       48
   45.970       46
   45.985       45
