    4.000       47
    4.015       43
    4.030       51
    4.045       40
    4.060       45
    4.075       47
    4.090       46
    4.105       45
    4.120       46
    4.135       49
    4.150       44
    4.165       48
    4.180       46
    4.195       48
    4.210       47
    4.225       43
    4.240       40
    4.255       43
    4.270       45
    4.285       44
    4.300       43
    4.315       56
    4.330       39
    4.345       48
    4.360       36
    4.375       41
    4.390       60
    4.405       45
    4.420       56
    4.435       52
    4.450       46
    4.465       37
    4.480       39
    4.495       58
    4.510       50
    4.525       49
    4.540       37
    4.555       41
    4.570       45
    4.585       41
    4.600       43
    4.615       45
    4.630       37
    4.645       33
    4.660       44
    4.675       44
    4.690       42
    4.705       35
    4.720       40
    4.735       31
    4.750       37
    4.765       45
    4.780       43
    4.795       36
    4.810       45
    4.825       55
    4.840       49
    4.855       51
    4.870       46
    4.885       45
    4.900       45
    4.915       45
    4.930       50
    4.945       47
    4.960       36
    4.975       40
    4.990       43
    5.005       44
    5.020       41
    5.035       45
    5.050       47
    5.065       44
    5.080       44
    5.095       44
    5.110       44
    5.125       57
    5.140       49
    5.155       47
    5.170       47
    5.185       42
    5.200       38
    5.215       41
    5.230       45
    5.245       51
    5.260       38
    5.275       36
    5.290       44
    5.305       35
    5.320       42
    5.335       45
    5.350       38
    5.365       38
    5.380       38
    5.395       40
    5.410       43
    5.425       51
    5.440       56
    5.455       49
    5.470       47
    5.485       50
    5.500       34
    5.515       46
    5.530       51
    5.545       40
    5.560       45
    5.575       45
    5.590       39
    5.605       43
    5.620       42
    5.635       53
    5.650       51
    5.665       57
    5.680       43
    5.695       46
    5.710       58
    5.725       37
    5.740       47
    5.755       39
    5.770       38
    5.785       40
    5.800       37
    5.815       46
    5.830       44
    5.845       48
    5.860       46
    5.875       42
    5.890       45
    5.905       41
    5.920       52
    5.935       50
    5.950       43
    5.965       42
    5.980       42
    5.995       45
    6.010       42
    6.025       40
    6.040       52
    6.055       42
    6.070       36
    6.085       49
    6.100       39
    6.115       43
    6.130       43
    6.145       41
    6.160       40
    6.175       37
    6.190       44
    6.205       39
    6.220       44
    6.235       42
    6.250       47
    6.265       47
    6.280       46
    6.295       48
    6.310       57
    6.325       70
    6.340       73
    6.355       79
    6.370       70
    6.385       68
    6.400       93
    6.415      106
    6.430       92
    6.445       84
    6.460      111
    6.475      112
    6.490      129
    6.505      114
    6.520      140
    6.535      148
    6.550      180
    6.565      188
    6.580      208
    6.595      239
    6.610      290
    6.625      345
    6.640      378
    6.655      322
    6.670      344
    6.685      328
    6.700      269
    6.715      172
    6.730      100
    6.745       59
    6.760       54
    6.775       44
    6.790       42
    6.805       49
    6.820       43
    6.835       45
    6.850       40
    6.865       44
    6.880       42
    6.895       43
    6.910       40
    6.925       44
    6.940       35
    6.955       51
    6.970       42
    6.985       47
    7.000       45
    7.015       51
    7.030       57
    7.045       59
    7.060       53
    7.075       67
    7.090       62
    7.105       52
    7.120       50
    7.135       63
    7.150       62
    7.165       71
    7.180       91
    7.195      107
    7.210      114
    7.225       97
    7.240       78
    7.255       56
    7.270       43
    7.285       42
    7.300       32
    7.315       46
    7.330       48
    7.345       42
    7.360       31
    7.375       40
    7.390       38
    7.405       46
    7.420       44
    7.435       42
    7.450       35
    7.465       32
    7.480       38
    7.495       48
    7.510       42
    7.525       42
    7.540       41
    7.555       40
    7.570       50
    7.585       63
    7.600       47
    7.615       35
    7.630       46
    7.645       45
    7.660       40
    7.675       43
    7.690       53
    7.705       43
    7.720       44
    7.735       38
    7.750       39
    7.765       44
    7.780       38
    7.795       33
    7.810       33
    7.825       45
    7.840       43
    7.855       45
    7.870       42
    7.885       49
    7.900       48
    7.915       36
    7.930       34
    7.945       37
    7.960       37
    7.975       33
    7.990       45
    8.005       51
    8.020       51
    8.035       36
    8.050       45
    8.065       40
    8.080       39
    8.095       40
    8.110       48
    8.125       50
    8.140       39
    8.155       39
    8.170       37
    8.185       35
    8.200       38
    8.215       40
    8.230       47
    8.245       49
    8.260       47
    8.275       48
    8.290       43
    8.305       51
    8.320       50
    8.335       41
    8.350       40
    8.365       38
    8.380       44
    8.395       44
    8.410       40
    8.425       36
    8.440       47
    8.455       40
    8.470       38
    8.485       53
    8.500       39
    8.515       38
    8.530       43
    8.545       45
    8.560       49
    8.575       51
    8.590       49
    8.605       45
    8.620       50
    8.635       50
    8.650       36
    8.665       48
    8.680       51
    8.695       46
    8.710       49
    8.725       55
    8.740       49
    8.755       32
    8.770       41
    8.785       37
    8.800       50
    8.815       48
    8.830       40
    8.845       36
    8.860       36
    8.875       37
    8.890       28
    8.905       44
    8.920       34
    8.935       43
    8.950       47
    8.965       41
    8.980       32
    8.995       37
    9.010       36
    9.025       48
    9.040       47
    9.055       42
    9.070       49
    9.085       46
    9.100       44
    9.115       44
    9.130       49
    9.145       53
    9.160       54
    9.175       51
    9.190       42
    9.205       35
    9.220       41
    9.235       34
    9.250       32
    9.265       41
    9.280       35
    9.295       44
    9.310       49
    9.325       52
    9.340       61
    9.355       45
    9.370       50
    9.385       47
    9.400       34
    9.415       42
    9.430       54
    9.445       46
    9.460       48
    9.475       44
    9.490       46
    9.505       46
    9.520       44
    9.535       41
    9.550       48
    9.565       57
    9.580       48
    9.595       38
    9.610       38
    9.625       38
    9.640       44
    9.655       43
    9.670       41
    9.685       48
    9.700       51
    9.715       41
    9.730       45
    9.745       42
    9.760       51
    9.775       54
    9.790       57
    9.805       47
    9.820       49
    9.835       37
    9.850       38
    9.865       44
    9.880       50
    9.895       45
    9.910       47
    9.925       47
    9.940       50
    9.955       46
    9.970       39
    9.985       37
   10.000       44
   10.015       46
   10.030       44
   10.045       43
   10.060       41
   10.075       35
   10.090       44
   10.105       44
   10.120       38
   10.135       59
   10.150       65
   10.165       43
   10.180       43
   10.195       43
   10.210       48
   10.225       47
   10.240       54
   10.255       52
   10.270       53
   10.285       58
   10.300       54
   10.315       47
   10.330       51
   10.345       49
   10.360       46
   10.375       56
   10.390       60
   10.405       61
   10.420       51
   10.435       61
   10.450       66
   10.465       59
   10.480       61
   10.495       79
   10.510       79
   10.525       68
   10.540       73
   10.555       72
   10.570       60
   10.585       57
   10.600       45
   10.615       49
   10.630       48
   10.645       51
   10.660       55
   10.675       52
   10.690       63
   10.705       64
   10.720       48
   10.735       74
   10.750       82
   10.765       98
   10.780       90
   10.795      116
   10.810      113
   10.825      128
   10.840      131
   10.855      143
   10.870      175
   10.885      227
   10.900      261
   10.915      223
   10.930      177
   10.945      119
   10.960       82
   10.975       63
   10.990       48
   11.005       49
   11.020       44
   11.035       47
   11.050       43
   11.065       43
   11.080       51
   11.095       45
   11.110       42
   11.125       49
   11.140       54
   11.155       51
   11.170       55
   11.185       48
   11.200       60
   11.215       61
   11.230       52
   11.245       62
   11.260       72
   11.275       83
   11.290       78
   11.305       64
   11.320       52
   11.335       44
   11.350       42
   11.365       58
   11.380       56
   11.395       38
   11.410       52
   11.425       53
   11.440       48
   11.455       60
   11.470       60
   11.485       63
   11.500       55
   11.515       43
   11.530       37
   11.545       34
   11.560       43
   11.575       29
   11.590       41
   11.605       36
   11.620       49
   11.635       52
   11.650       51
   11.665       42
   11.680       39
   11.695       51
   11.710       47
   11.725       56
   11.740       48
   11.755       52
   11.770       68
   11.785       83
   11.800       68
   11.815       67
   11.830       84
   11.845       66
   11.860       71
   11.875       63
   11.890       57
   11.905       68
   11.920       74
   11.935       68
   11.950       67
   11.965       63
   11.980       53
   11.995       53
   12.010       58
   12.025       60
   12.040       60
   12.055       53
   12.070       52
   12.085       50
   12.100       59
   12.115       61
   12.130       60
   12.145       56
   12.160       57
   12.175       52
   12.190       47
   12.205       40
   12.220       46
   12.235       35
   12.250       44
   12.265       44
   12.280       41
   12.295       36
   12.310       47
   12.325       39
   12.340       39
   12.355       38
   12.370       38
   12.385       41
   12.400       41
   12.415       40
   12.430       41
   12.445       46
   12.460       43
   12.475       50
   12.490       41
   12.505       35
   12.520       47
   12.535       61
   12.550       69
   12.565       64
   12.580       64
   12.595       85
   12.610       84
   12.625      103
   12.640      102
   12.655      120
   12.670      128
   12.685      164
   12.700      208
   12.715      263
   12.730      294
   12.745      263
   12.760      211
   12.775      189
   12.790      197
   12.805      176
   12.820      161
   12.835      117
   12.850       88
   12.865       81
   12.880       69
   12.895       52
   12.910       62
   12.925       64
   12.940       63
   12.955       49
   12.970       71
   12.985       74
   13.000       92
   13.015      106
   13.030      113
   13.045      127
   13.060      142
   13.075      170
   13.090      223
   13.105      252
   13.120      245
   13.135      188
   13.150      145
   13.165      155
   13.180      153
   13.195      177
   13.210      246
   13.225      261
   13.240      285
   13.255      367
   13.270      397
   13.285      471
   13.300      572
   13.315      542
   13.330      440
   13.345      401
   13.360      439
   13.375      602
   13.390      763
   13.405      929
   13.420      899
   13.435      648
   13.450      377
   13.465      208
   13.480      129
   13.495       99
   13.510      103
   13.525      100
   13.540      113
   13.555      105
   13.570      128
   13.585      144
   13.600      173
   13.615      208
   13.630      257
   13.645      291
   13.660      283
   13.675      289
   13.690      259
   13.705      192
   13.720      140
   13.735      111
   13.750       79
   13.765       66
   13.780       63
   13.795       55
   13.810       56
   13.825       66
   13.840       56
   13.855       64
   13.870       70
   13.885       69
   13.900       67
   13.915       71
   13.930       83
   13.945       76
   13.960       57
   13.975       42
   13.990       48
   14.005       42
   14.020       53
   14.035       52
   14.050       48
   14.065       44
   14.080       53
   14.095       42
   14.110       40
   14.125       44
   14.140       45
   14.155       58
   14.170       63
   14.185       65
   14.200       59
   14.215       63
   14.230       52
   14.245       79
   14.260       82
   14.275       81
   14.290       89
   14.305      117
   14.320      150
   14.335      168
   14.350      175
   14.365      183
   14.380      190
   14.395      191
   14.410      165
   14.425      157
   14.440      148
   14.455      164
   14.470      165
   14.485      148
   14.500      142
   14.515      140
   14.530      151
   14.545      174
   14.560      213
   14.575      241
   14.590      285
   14.605      330
   14.620      260
   14.635      195
   14.650      120
   14.665       80
   14.680       65
   14.695       57
   14.710       62
   14.725       55
   14.740       45
   14.755       63
   14.770       46
   14.785       42
   14.800       45
   14.815       42
   14.830       52
   14.845       48
   14.860       48
   14.875       43
   14.890       45
   14.905       50
   14.920       55
   14.935       45
   14.950       60
   14.965       63
   14.980       58
   14.995      101
   15.010      102
   15.025      101
   15.040      156
   15.055      184
   15.070      210
   15.085      234
   15.100      311
   15.115      341
   15.130      424
   15.145      452
   15.160      564
   15.175      705
   15.190      796
   15.205      672
   15.220      504
   15.235      322
   15.250      199
   15.265      149
   15.280      140
   15.295      132
   15.310      138
   15.325      140
   15.340      136
   15.355      124
   15.370      132
   15.385      164
   15.400      188
   15.415      209
   15.430      214
   15.445      178
   15.460      174
   15.475      140
   15.490      145
   15.505      122
   15.520      110
   15.535      100
   15.550      119
   15.565      116
   15.580      142
   15.595      187
   15.610      253
   15.625      241
   15.640      247
   15.655      277
   15.670      324
   15.685      320
   15.700      324
   15.715      273
   15.730      203
   15.745      174
   15.760      142
   15.775      140
   15.790      187
   15.805      205
   15.820      181
   15.835      176
   15.850      189
   15.865      237
   15.880      251
   15.895      227
   15.910      185
   15.925      133
   15.940      102
   15.955       76
   15.970       63
   15.985       57
   16.000       72
   16.015       64
   16.030       64
   16.045       65
   16.060       66
   16.075       72
   16.090       68
   16.105       82
   16.120       92
   16.135       96
   16.150      135
   16.165      153
   16.180      182
   16.195      204
   16.210      239
   16.225      247
   16.240      269
   16.255      268
   16.270      226
   16.285      187
   16.300      136
   16.315      101
   16.330       73
   16.345       78
   16.360       93
   16.375       98
   16.390      125
   16.405      132
   16.420      141
   16.435      155
   16.450      164
   16.465      188
   16.480      205
   16.495      263
   16.510      322
   16.525      456
   16.540      521
   16.555      459
   16.570      365
   16.585      255
   16.600      238
   16.615      255
   16.630      322
   16.645      355
   16.660      346
   16.675      328
   16.690      271
   16.705      254
   16.720      236
   16.735      244
   16.750      230
   16.765      223
   16.780      242
   16.795      255
   16.810      298
   16.825      296
   16.840      236
   16.855      275
   16.870      322
   16.885      279
   16.900      268
   16.915      237
   16.930      206
   16.945      151
   16.960      119
   16.975      109
   16.990       95
   17.005       94
   17.020      100
   17.035      115
   17.050      115
   17.065      128
   17.080      157
   17.095      235
   17.110      291
   17.125      264
   17.140      238
   17.155      217
   17.170      182
   17.185      142
   17.200      138
   17.215      156
   17.230      164
   17.245      195
   17.260      239
   17.275      310
   17.290      355
   17.305      375
   17.320      402
   17.335      425
   17.350      370
   17.365      263
   17.380      197
   17.395      133
   17.410      110
   17.425      105
   17.440      125
   17.455      115
   17.470      124
   17.485      107
   17.500      113
   17.515      113
   17.530      130
   17.545      135
   17.560      167
   17.575      210
   17.590      241
   17.605      224
   17.620      200
   17.635      157
   17.650      114
   17.665       79
   17.680       86
   17.695       73
   17.710       74
   17.725       89
   17.740       93
   17.755      102
   17.770      104
   17.785      107
   17.800       97
   17.815       82
   17.830       80
   17.845       87
   17.860       94
   17.875      110
   17.890       84
   17.905      108
   17.920      102
   17.935       86
   17.950       65
   17.965       84
   17.980       76
   17.995       67
   18.010       74
   18.025       68
   18.040       69
   18.055       61
   18.070       50
   18.085       52
   18.100       46
   18.115       49
   18.130       55
   18.145       53
   18.160       52
   18.175       44
   18.190       48
   18.205       51
   18.220       58
   18.235       54
   18.250       60
   18.265       73
   18.280       78
   18.295       85
   18.310       94
   18.325      107
   18.340      141
   18.355      158
   18.370      176
   18.385      166
   18.400      221
   18.415      233
   18.430      191
   18.445      140
   18.460      114
   18.475      103
   18.490       77
   18.505       69
   18.520       66
   18.535       49
   18.550       64
   18.565       58
   18.580       59
   18.595       78
   18.610       88
   18.625       97
   18.640       98
   18.655      119
   18.670      129
   18.685      151
   18.700      147
   18.715      152
   18.730      119
   18.745      143
   18.760      152
   18.775      144
   18.790      155
   18.805      146
   18.820       96
   18.835       87
   18.850       92
   18.865       84
   18.880       51
   18.895       51
   18.910       56
   18.925       71
   18.940       62
   18.955       76
   18.970       89
   18.985       77
   19.000      102
   19.015       97
   19.030       96
   19.045       78
   19.060       78
   19.075       84
   19.090       93
   19.105       88
   19.120       93
   19.135       71
   19.150       63
   19.165       51
   19.180       61
   19.195       44
   19.210       59
   19.225       49
   19.240       46
   19.255       52
   19.270       48
   19.285       42
   19.300       46
   19.315       50
   19.330       48
   19.345       51
   19.360       53
   19.375       56
   19.390       53
   19.405       37
   19.420       47
   19.435       56
   19.450       58
   19.465       60
   19.480       62
   19.495       61
   19.510       60
   19.525       76
   19.540      100
   19.555      103
   19.570       92
   19.585      111
   19.600       95
   19.615       87
   19.630       77
   19.645       79
   19.660       75
   19.675      102
   19.690      122
   19.705      119
   19.720      137
   19.735      152
   19.750      146
   19.765      145
   19.780      141
   19.795      111
   19.810       85
   19.825       76
   19.840       69
   19.855       71
   19.870       76
   19.885       82
   19.900      100
   19.915      121
   19.930      159
   19.945      181
   19.960      239
   19.975      294
   19.990      372
   20.005      485
   20.020      497
   20.035      463
   20.050      406
   20.065      321
   20.080      240
   20.095      237
   20.110      246
   20.125      247
   20.140      261
   20.155      252
   20.170      234
   20.185      181
   20.200      133
   20.215      109
   20.230       86
   20.245       72
   20.260       71
   20.275       70
   20.290       70
   20.305       75
   20.320       76
   20.335       73
   20.350       77
   20.365       70
   20.380       68
   20.395       64
   20.410       71
   20.425       70
   20.440       68
   20.455       67
   20.470       59
   20.485       54
   20.500       53
   20.515       52
   20.530       45
   20.545       48
   20.560       51
   20.575       54
   20.590       46
   20.605       62
   20.620       68
   20.635       56
   20.650       71
   20.665       84
   20.680       81
   20.695       95
   20.710       89
   20.725       69
   20.740       49
   20.755       51
   20.770       65
   20.785       52
   20.800       85
   20.815       81
   20.830       83
   20.845      127
   20.860      120
   20.875      129
   20.890      154
   20.905      140
   20.920      133
   20.935      135
   20.950      109
   20.965      132
   20.980      170
   20.995      150
   21.010      151
   21.025      125
   21.040      109
   21.055       70
   21.070       77
   21.085       66
   21.100       59
   21.115       64
   21.130       51
   21.145       61
   21.160       53
   21.175       54
   21.190       54
   21.205       43
   21.220       43
   21.235       54
   21.250       45
   21.265       44
   21.280       62
   21.295       58
   21.310       73
   21.325       53
   21.340       70
   21.355      104
   21.370      104
   21.385       97
   21.400       75
   21.415       65
   21.430       64
   21.445       62
   21.460       54
   21.475       48
   21.490       43
   21.505       45
   21.520       43
   21.535       42
   21.550       42
   21.565       37
   21.580       45
   21.595       51
   21.610       55
   21.625       63
   21.640       73
   21.655       72
   21.670       70
   21.685      104
   21.700      126
   21.715      170
   21.730      172
   21.745      175
   21.760      164
   21.775      138
   21.790      122
   21.805      113
   21.820      105
   21.835      142
   21.850      168
   21.865      216
   21.880      298
   21.895      382
   21.910      451
   21.925      445
   21.940      332
   21.955      259
   21.970      217
   21.985      148
   22.000      114
   22.015       97
   22.030       94
   22.045       84
   22.060       72
   22.075       72
   22.090       69
   22.105       68
   22.120       58
   22.135       59
   22.150       51
   22.165       50
   22.180       49
   22.195       61
   22.210       46
   22.225       40
   22.240       51
   22.255       40
   22.270       48
   22.285       46
   22.300       50
   22.315       40
   22.330       48
   22.345       66
   22.360       48
   22.375       46
   22.390       53
   22.405       67
   22.420       54
   22.435       71
   22.450       88
   22.465       80
   22.480       84
   22.495       90
   22.510       99
   22.525       91
   22.540       88
   22.555       73
   22.570       59
   22.585       52
   22.600       61
   22.615       50
   22.630       63
   22.645       79
   22.660       82
   22.675       91
   22.690       85
   22.705      101
   22.720       91
   22.735      106
   22.750      130
   22.765      130
   22.780      143
   22.795      104
   22.810      100
   22.825       92
   22.840       86
   22.855       85
   22.870       96
   22.885      108
   22.900      128
   22.915      126
   22.930      146
   22.945      148
   22.960      118
   22.975      127
   22.990      122
   23.005      133
   23.020      122
   23.035       95
   23.050       78
   23.065       62
   23.080       59
   23.095       61
   23.110       59
   23.125       61
   23.140       54
   23.155       59
   23.170       74
   23.185       75
   23.200       70
   23.215       71
   23.230       76
   23.245       83
   23.260       78
   23.275       86
   23.290       95
   23.305       96
   23.320      101
   23.335       92
   23.350       90
   23.365       63
   23.380       58
   23.395       56
   23.410       43
   23.425       55
   23.440       55
   23.455       46
   23.470       56
   23.485       56
   23.500       68
   23.515       62
   23.530       57
   23.545       51
   23.560       58
   23.575       47
   23.590       55
   23.605       45
   23.620       48
   23.635       46
   23.650       39
   23.665       48
   23.680       64
   23.695       52
   23.710       48
   23.725       66
   23.740       61
   23.755       73
   23.770       98
   23.785       77
   23.800       71
   23.815       75
   23.830       57
   23.845       60
   23.860       56
   23.875       41
   23.890       47
   23.905       40
   23.920       59
   23.935       58
   23.950       62
   23.965       76
   23.980       62
   23.995       48
   24.010       56
   24.025       45
   24.040       52
   24.055       55
   24.070       70
   24.085       91
   24.100       92
   24.115      104
   24.130       90
   24.145       64
   24.160       67
   24.175       68
   24.190       58
   24.205       59
   24.220       59
   24.235       66
   24.250       50
   24.265       57
   24.280       61
   24.295       67
   24.310       57
   24.325       66
   24.340       64
   24.355       66
   24.370       79
   24.385       78
   24.400       67
   24.415       56
   24.430       57
   24.445       54
   24.460       50
   24.475       41
   24.490       39
   24.505       49
   24.520       43
   24.535       48
   24.550       42
   24.565       57
   24.580       53
   24.595       46
   24.610       54
   24.625       59
   24.640       54
   24.655       55
   24.670       72
   24.685       84
   24.700       85
   24.715       89
   24.730       87
   24.745       82
   24.760      100
   24.775       99
   24.790       74
   24.805       65
   24.820       67
   24.835       62
   24.850       70
   24.865       67
   24.880       56
   24.895       66
   24.910       58
   24.925       53
   24.940       42
   24.955       50
   24.970       52
   24.985       49
   25.000       55
   25.015       53
   25.030       52
   25.045       67
   25.060       83
   25.075       93
   25.090       94
   25.105      102
   25.120      114
   25.135       99
   25.150       80
   25.165       68
   25.180       74
   25.195       69
   25.210       61
   25.225       63
   25.240       68
   25.255       70
   25.270       63
   25.285       80
   25.300       79
   25.315       74
   25.330       69
   25.345       68
   25.360       66
   25.375       59
   25.390       60
   25.405       53
   25.420       50
   25.435       46
   25.450       56
   25.465       62
   25.480       78
   25.495       80
   25.510       88
   25.525      103
   25.540      115
   25.555      122
   25.570       91
   25.585       79
   25.600       70
   25.615       67
   25.630       47
   25.645       61
   25.660       57
   25.675       70
   25.690       71
   25.705       73
   25.720       77
   25.735       88
   25.750      101
   25.765      117
   25.780      141
   25.795      163
   25.810      145
   25.825      139
   25.840      132
   25.855       98
   25.870       81
   25.885       81
   25.900       82
   25.915       82
   25.930       92
   25.945       85
   25.960       88
   25.975      106
   25.990      126
   26.005      142
   26.020      131
   26.035      108
   26.050      113
   26.065       91
   26.080       81
   26.095       74
   26.110       64
   26.125       80
   26.140       63
   26.155       58
   26.170       62
   26.185       54
   26.200       68
   26.215       74
   26.230       75
   26.245       70
   26.260       72
   26.275       80
   26.290       99
   26.305      117
   26.320      124
   26.335      110
   26.350       94
   26.365       78
   26.380       68
   26.395       61
   26.410       58
   26.425       77
   26.440       75
   26.455       74
   26.470       92
   26.485       93
   26.500       79
   26.515       81
   26.530       72
   26.545       62
   26.560       60
   26.575       64
   26.590       53
   26.605       44
   26.620       59
   26.635       59
   26.650       51
   26.665       65
   26.680       69
   26.695       64
   26.710       53
   26.725       60
   26.740       68
   26.755       72
   26.770       70
   26.785       91
   26.800       95
   26.815       76
   26.830       71
   26.845       69
   26.860       57
   26.875       54
   26.890       47
   26.905       58
   26.920       46
   26.935       60
   26.950       70
   26.965       79
   26.980       83
   26.995       97
   27.010      108
   27.025      132
   27.040      134
   27.055      125
   27.070      144
   27.085      124
   27.100      138
   27.115      134
   27.130      120
   27.145      126
   27.160       94
   27.175       95
   27.190       77
   27.205       67
   27.220       53
   27.235       48
   27.250       64
   27.265       63
   27.280       60
   27.295       62
   27.310       59
   27.325       67
   27.340       69
   27.355       66
   27.370       79
   27.385       71
   27.400       73
   27.415       66
   27.430       63
   27.445       63
   27.460       54
   27.475       62
   27.490       65
   27.505       62
   27.520       71
   27.535       69
   27.550       85
   27.565       86
   27.580      100
   27.595       92
   27.610       79
   27.625       79
   27.640      105
   27.655      114
   27.670      126
   27.685      137
   27.700      155
   27.715      172
   27.730      193
   27.745      183
   27.760      185
   27.775      154
   27.790      142
   27.805      148
   27.820      119
   27.835       97
   27.850       87
   27.865       88
   27.880       87
   27.895       85
   27.910       78
   27.925       77
   27.940       85
   27.955       82
   27.970      101
   27.985      133
   28.000      113
   28.015       99
   28.030      125
   28.045      129
   28.060      111
   28.075      107
   28.090       85
   28.105       76
   28.120       92
   28.135       93
   28.150       79
   28.165       86
   28.180       67
   28.195       76
   28.210       78
   28.225       83
   28.240       67
   28.255       75
   28.270       76
   28.285       73
   28.300       67
   28.315       69
   28.330       73
   28.345       71
   28.360       81
   28.375       80
   28.390       79
   28.405       81
   28.420       90
   28.435       93
   28.450       85
   28.465      101
   28.480       91
   28.495      111
   28.510      108
   28.525      107
   28.540       98
   28.555      102
   28.570       93
   28.585       98
   28.600       77
   28.615       60
   28.630       59
   28.645       59
   28.660       75
   28.675       51
   28.690       52
   28.705       45
   28.720       37
   28.735       42
   28.750       49
   28.765       56
   28.780       63
   28.795       72
   28.810       82
   28.825       79
   28.840       67
   28.855       65
   28.870       73
   28.885       72
   28.900       65
   28.915       70
   28.930       75
   28.945       73
   28.960       65
   28.975       65
   28.990       64
   29.005       85
   29.020       87
   29.035       85
   29.050       86
   29.065       94
   29.080       93
   29.095       84
   29.110       95
   29.125       87
   29.140      103
   29.155      103
   29.170       99
   29.185      110
   29.200      112
   29.215       97
   29.230      111
   29.245       94
   29.260       95
   29.275       78
   29.290       69
   29.305       66
   29.320       68
   29.335       81
   29.350       86
   29.365       81
   29.380       88
   29.395       83
   29.410       60
   29.425       70
   29.440       72
   29.455       61
   29.470       63
   29.485       65
   29.500       66
   29.515       61
   29.530       57
   29.545       55
   29.560       57
   29.575       70
   29.590       58
   29.605       58
   29.620       60
   29.635       65
   29.650       69
   29.665       61
   29.680       77
   29.695       80
   29.710       91
   29.725       99
   29.740       83
   29.755       90
   29.770       83
   29.785       81
   29.800       98
   29.815      117
   29.830      115
   29.845      102
   29.860      106
   29.875      106
   29.890       99
   29.905       88
   29.920       74
   29.935       78
   29.950       86
   29.965       78
   29.980       83
   29.995       65
   30.010       64
   30.025       51
   30.040       57
   30.055       52
   30.070       51
   30.085       41
   30.100       45
   30.115       61
   30.130       51
   30.145       49
   30.160       59
   30.175       50
   30.190       50
   30.205       48
   30.220       54
   30.235       53
   30.250       57
   30.265       48
   30.280       49
   30.295       55
   30.310       53
   30.325       63
   30.340       57
   30.355       67
   30.370       63
   30.385       49
   30.400       54
   30.415       65
   30.430       63
   30.445       59
   30.460       67
   30.475       67
   30.490       54
   30.505       52
   30.520       60
   30.535       60
   30.550       56
   30.565       56
   30.580       54
   30.595       64
   30.610       80
   30.625       88
   30.640       77
   30.655       85
   30.670       88
   30.685       84
   30.700       95
   30.715       80
   30.730       83
   30.745       97
   30.760       92
   30.775       82
   30.790       82
   30.805       90
   30.820       91
   30.835       77
   30.850       66
   30.865       84
   30.880       74
   30.895       69
   30.910       59
   30.925       53
   30.940       58
   30.955       59
   30.970       59
   30.985       67
   31.000       55
   31.015       71
   31.030       82
   31.045       84
   31.060       84
   31.075       91
   31.090       85
   31.105      102
   31.120       92
   31.135       97
   31.150       88
   31.165       90
   31.180       96
   31.195       92
   31.210       76
   31.225       68
   31.240       72
   31.255       56
   31.270       63
   31.285       64
   31.300       52
   31.315       61
   31.330       57
   31.345       75
   31.360       62
   31.375       58
   31.390       60
   31.405       61
   31.420       68
   31.435       67
   31.450       76
   31.465       74
   31.480       63
   31.495       77
   31.510       81
   31.525       75
   31.540       68
   31.555       70
   31.570       64
   31.585       75
   31.600       63
   31.615       69
   31.630       67
   31.645       66
   31.660       73
   31.675       77
   31.690       78
   31.705       77
   31.720       78
   31.735       97
   31.750       89
   31.765       89
   31.780       79
   31.795       73
   31.810       89
   31.825       97
   31.840       78
   31.855       79
   31.870      100
   31.885      108
   31.900       96
   31.915      101
   31.930       92
   31.945       84
   31.960       96
   31.975       89
   31.990       85
   32.005       96
   32.020       97
   32.035       83
   32.050       98
   32.065       85
   32.080       78
   32.095       92
   32.110       97
   32.125       85
   32.140       82
   32.155       83
   32.170       77
   32.185       68
   32.200       61
   32.215       72
   32.230       74
   32.245       89
   32.260       89
   32.275       90
   32.290       87
   32.305       84
   32.320       78
   32.335       72
   32.350       63
   32.365       59
   32.380       54
   32.395       64
   32.410       65
   32.425       64
   32.440       60
   32.455       58
   32.470       59
   32.485       76
   32.500       62
   32.515       63
   32.530       64
   32.545       61
   32.560       68
   32.575       76
   32.590       67
   32.605       63
   32.620       62
   32.635       42
   32.650       52
   32.665       46
   32.680       48
   32.695       72
   32.710       61
   32.725       47
   32.740       52
   32.755       49
   32.770       56
   32.785       55
   32.800       55
   32.815       72
   32.830       49
   32.845       47
   32.860       51
   32.875       52
   32.890       51
   32.905       47
   32.920       43
   32.935       49
   32.950       43
   32.965       44
   32.980       50
   32.995       55
   33.010       57
   33.025       55
   33.040       67
   33.055       61
   33.070       72
   33.085       63
   33.100       80
   33.115       89
   33.130      102
   33.145       67
   33.160       69
   33.175       74
   33.190       57
   33.205       50
   33.220       62
   33.235       56
   33.250       54
   33.265       64
   33.280       65
   33.295       57
   33.310       54
   33.325       62
   33.340       60
   33.355       63
   33.370       61
   33.385       50
   33.400       49
   33.415       55
   33.430       60
   33.445       58
   33.460       59
   33.475       54
   33.490       52
   33.505       57
   33.520       54
   33.535       69
   33.550       63
   33.565       77
   33.580       85
   33.595       91
   33.610       90
   33.625       82
   33.640       93
   33.655       96
   33.670      106
   33.685      100
   33.700      112
   33.715       97
   33.730       86
   33.745       80
   33.760       71
   33.775       78
   33.790       76
   33.805       78
   33.820       77
   33.835       72
   33.850       69
   33.865       70
   33.880       60
   33.895       60
   33.910       54
   33.925       73
   33.940       72
   33.955       97
   33.970      105
   33.985       99
   34.000       98
   34.015       91
   34.030       86
   34.045       62
   34.060       64
   34.075       59
   34.090       72
   34.105       68
   34.120       70
   34.135       79
   34.150       75
   34.165       73
   34.180       92
   34.195       94
   34.210       91
   34.225       84
   34.240       76
   34.255       67
   34.270       64
   34.285       77
   34.300       73
   34.315       53
   34.330       64
   34.345       50
   34.360       60
   34.375       60
   34.390       42
   34.405       50
   34.420       44
   34.435       48
   34.450       52
   34.465       56
   34.480       45
   34.495       44
   34.510       47
   34.525       54
   34.540       64
   34.555       57
   34.570       61
   34.585       59
   34.600       45
   34.615       57
   34.630       71
   34.645       67
   34.660       54
   34.675       61
   34.690       80
   34.705       65
   34.720       71
   34.735       62
   34.750       62
   34.765       58
   34.780       49
   34.795       55
   34.810       53
   34.825       48
   34.840       42
   34.855       48
   34.870       51
   34.885       46
   34.900       49
   34.915       58
   34.930       65
   34.945       56
   34.960       71
   34.975       80
   34.990       64
   35.005       55
   35.020       51
   35.035       51
   35.050       59
   35.065       48
   35.080       54
   35.095       50
   35.110       52
   35.125       52
   35.140       56
   35.155       51
   35.170       63
   35.185       59
   35.200       59
   35.215       65
   35.230       58
   35.245       63
   35.260       68
   35.275       61
   35.290       63
   35.305       61
   35.320       66
   35.335       72
   35.350       60
   35.365       57
   35.380       62
   35.395       64
   35.410       63
   35.425       75
   35.440       67
   35.455       60
   35.470       62
   35.485       69
   35.500       69
   35.515       64
   35.530       69
   35.545       67
   35.560       86
   35.575       79
   35.590       86
   35.605      101
   35.620       99
   35.635       98
   35.650       88
   35.665       82
   35.680       95
   35.695       91
   35.710       83
   35.725      102
   35.740       75
   35.755       93
   35.770       77
   35.785       84
   35.800       86
   35.815       78
   35.830       89
   35.845       76
   35.860       58
   35.875       58
   35.890       54
   35.905       45
   35.920       47
   35.935       55
   35.950       52
   35.965       63
   35.980       40
   35.995       60
   36.010       57
   36.025       54
   36.040       39
   36.055       46
   36.070       40
   36.085       48
   36.100       57
   36.115       51
   36.130       52
   36.145       56
   36.160       56
   36.175       52
   36.190       59
   36.205       50
   36.220       43
   36.235       40
   36.250       28
   36.265       35
   36.280       47
   36.295       54
   36.310       52
   36.325       52
   36.340       42
   36.355       40
   36.370       51
   36.385       51
   36.400       51
   36.415       59
   36.430       52
   36.445       66
   36.460       64
   36.475       66
   36.490       65
   36.505       59
   36.520       66
   36.535       62
   36.550       60
   36.565       67
   36.580       55
   36.595       51
   36.610       64
   36.625       55
   36.640       50
   36.655       49
   36.670       52
   36.685       58
   36.700       59
   36.715       61
   36.730       71
   36.745       70
   36.760       43
   36.775       54
   36.790       55
   36.805       50
   36.820       50
   36.835       43
   36.850       50
   36.865       49
   36.880       44
   36.895       57
   36.910       51
   36.925       64
   36.940       66
   36.955       66
   36.970       70
   36.985       57
   37.000       77
   37.015       63
   37.030       61
   37.045       62
   37.060       58
   37.075       58
   37.090       66
   37.105       58
   37.120       55
   37.135       60
   37.150       57
   37.165       51
   37.180       58
   37.195       55
   37.210       64
   37.225       56
   37.240       63
   37.255       80
   37.270       69
   37.285       72
   37.300       55
   37.315       58
   37.330       67
   37.345       63
   37.360       63
   37.375       61
   37.390       64
   37.405       64
   37.420       72
   37.435       63
   37.450       70
   37.465       81
   37.480       84
   37.495       77
   37.510       64
   37.525       56
   37.540       55
   37.555       43
   37.570       39
   37.585       52
   37.600       42
   37.615       47
   37.630       50
   37.645       51
   37.660       53
   37.675       49
   37.690       53
   37.705       38
   37.720       54
   37.735       54
   37.750       47
   37.765       38
   37.780       52
   37.795       44
   37.810       46
   37.825       51
   37.840       50
   37.855       58
   37.870       51
   37.885       47
   37.900       38
   37.915       50
   37.930       55
   37.945       48
   37.960       34
   37.975       51
   37.990       58
   38.005       50
   38.020       51
   38.035       57
   38.050       64
   38.065       56
   38.080       48
   38.095       53
   38.110       47
   38.125       47
   38.140       50
   38.155       63
   38.170       57
   38.185       53
   38.200       56
   38.215       56
   38.230       65
   38.245       51
   38.260       52
   38.275       59
   38.290       52
   38.305       49
   38.320       53
   38.335       52
   38.350       55
   38.365       55
   38.380       53
   38.395       49
   38.410       61
   38.425       72
   38.440       55
   38.455       46
   38.470       46
   38.485       55
   38.500       48
   38.515       56
   38.530       67
   38.545       72
   38.560       65
   38.575       69
   38.590       55
   38.605       63
   38.620       64
   38.635       49
   38.650       59
   38.665       52
   38.680       53
   38.695       48
   38.710       53
   38.725       50
   38.740       55
   38.755       48
   38.770       44
   38.785       44
   38.800       47
   38.815       46
   38.830       43
   38.845       59
   38.860       55
   38.875       48
   38.890       50
   38.905       48
   38.920       68
   38.935       66
   38.950       60
   38.965       45
   38.980       37
   38.995       53
   39.010       57
   39.025       59
   39.040       77
   39.055       54
   39.070       50
   39.085       54
   39.100       70
   39.115       56
   39.130       55
   39.145       58
   39.160       63
   39.175       53
   39.190       46
   39.205       49
   39.220       52
   39.235       49
   39.250       40
   39.265       53
   39.280       41
   39.295       50
   39.310       45
   39.325       40
   39.340       54
   39.355       54
   39.370       51
   39.385       61
   39.400       56
   39.415       43
   39.430       47
   39.445       53
   39.460       62
   39.475       62
   39.490       48
   39.505       48
   39.520       49
   39.535       48
   39.550       43
   39.565       40
   39.580       42
   39.595       39
   39.610       45
   39.625       47
   39.640       42
   39.655       39
   39.670       43
   39.685       43
   39.700       46
   39.715       51
   39.730       52
   39.745       42
   39.760       53
   39.775       42
   39.790       35
   39.805       30
   39.820       38
   39.835       38
   39.850       46
   39.865       54
   39.880       54
   39.895       49
   39.910       47
   39.925       42
   39.940       52
   39.955       53
   39.970       46
   39.985       56
   40.000       61
   40.015       44
   40.030       54
   40.045       62
   40.060       64
   40.075       57
   40.090       68
   40.105       81
   40.120       65
   40.135       61
   40.150       49
   40.165       54
   40.180       55
   40.195       55
   40.210       52
   40.225       52
   40.240       50
   40.255       54
   40.270       38
   40.285       45
   40.300       42
   40.315       50
   40.330       52
   40.345       41
   40.360       42
   40.375       55
   40.390       54
   40.405       57
   40.420       54
   40.435       59
   40.450       54
   40.465       51
   40.480       51
   40.495       57
   40.510       53
   40.525       53
   40.540       45
   40.555       53
   40.570       62
   40.585       57
   40.600       51
   40.615       64
   40.630       63
   40.645       53
   40.660       56
   40.675       57
   40.690       57
   40.705       52
   40.720       60
   40.735       52
   40.750       60
   40.765       51
   40.780       45
   40.795       49
   40.810       53
   40.825       48
   40.840       53
   40.855       49
   40.870       51
   40.885       51
   40.900       50
   40.915       52
   40.930       52
   40.945       47
   40.960       55
   40.975       68
   40.990       64
   41.005       55
   41.020       62
   41.035       51
   41.050       49
   41.065       44
   41.080       55
   41.095       53
   41.110       51
   41.125       50
   41.140       41
   41.155       48
   41.170       46
   41.185       45
   41.200       48
   41.215       45
   41.230       51
   41.245       48
   41.260       53
   41.275       52
   41.290       51
   41.305       55
   41.320       48
   41.335       45
   41.350       45
   41.365       54
   41.380       48
   41.395       46
   41.410       46
   41.425       48
   41.440       46
   41.455       52
   41.470       51
   41.485       50
   41.500       45
   41.515       41
   41.530       45
   41.545       40
   41.560       44
   41.575       32
   41.590       29
   41.605       35
   41.620       52
   41.635       44
   41.650       42
   41.665       50
   41.680       51
   41.695       61
   41.710       58
   41.725       47
   41.740       52
   41.755       50
   41.770       45
   41.785       46
   41.800       45
   41.815       41
   41.830       42
   41.845       43
   41.860       45
   41.875       40
   41.890       63
   41.905       42
   41.920       38
   41.935       39
   41.950       44
   41.965       43
   41.980       41
   41.995       45
   42.010       57
   42.025       55
   42.040       50
   42.055       49
   42.070       58
   42.085       62
   42.100       44
   42.115       50
   42.130       59
   42.145       45
   42.160       44
   42.175       53
   42.190       46
   42.205       39
   42.220       42
   42.235       59
   42.250       44
   42.265       52
   42.280       47
   42.295       50
   42.310       44
   42.325       39
   42.340       48
   42.355       45
   42.370       41
   42.385       49
   42.400       42
   42.415       45
   42.430       44
   42.445       41
   42.460       42
   42.475       46
   42.490       45
   42.505       47
   42.520       48
   42.535       46
   42.550       59
   42.565       50
   42.580       58
   42.595       48
   42.610       40
   42.625       49
   42.640       50
   42.655       56
   42.670       56
   42.685       50
   42.700       49
   42.715       55
   42.730       59
   42.745       47
   42.760       37
   42.775       43
   42.790       38
   42.805       44
   42.820       41
   42.835       41
   42.850       51
   42.865       41
   42.880       42
   42.895       51
   42.910       33
   42.925       46
   42.940       43
   42.955       48
   42.970       48
   42.985       44
   43.000       53
   43.015       60
   43.030       47
   43.045       44
   43.060       48
   43.075       48
   43.090       34
   43.105       39
   43.120       56
   43.135       32
   43.150       41
   43.165       53
   43.180       50
   43.195       44
   43.210       36
   43.225       51
   43.240       45
   43.255       48
   43.270       41
   43.285       46
   43.300       36
   43.315       44
   43.330       43
   43.345       55
   43.360       44
   43.375       43
   43.390       45
   43.405       49
   43.420       45
   43.435       45
   43.450       44
   43.465       54
   43.480       45
   43.495       41
   43.510       40
   43.525       32
   43.540       44
   43.555       40
   43.570       43
   43.585       40
   43.600       41
   43.615       38
   43.630       42
   43.645       43
   43.660       41
   43.675       43
   43.690       43
   43.705       45
   43.720       46
   43.735       47
   43.750       48
   43.765       38
   43.780       37
   43.795       39
   43.810       37
   43.825       36
   43.840       47
   43.855       41
   43.870       44
   43.885       43
   43.900       59
   43.915       48
   43.930       49
   43.945       38
   43.960       35
   43.975       36
   43.990       47
   44.005       48
   44.020       53
   44.035       45
   44.050       46
   44.065       39
   44.080       34
   44.095       46
   44.110       39
   44.125       40
   44.140       38
   44.155       44
   44.170       54
   44.185       46
   44.200       41
   44.215       46
   44.230       48
   44.245       37
   44.260       43
   44.275       51
   44.290       51
   44.305       48
   44.320       54
   44.335       55
   44.350       55
   44.365       56
   44.380       62
   44.395       46
   44.410       49
   44.425       49
   44.440       54
   44.455       50
   44.470       52
   44.485       50
   44.500       52
   44.515       49
   44.530       51
   44.545       47
   44.560       38
   44.575       49
   44.590       41
   44.605       38
   44.620       43
   44.635       48
   44.650       44
   44.665       52
   44.680       43
   44.695       39
   44.710       47
   44.725       45
   44.740       42
   44.755       44
   44.770       38
   44.785       44
   44.800       51
   44.815       34
   44.830       41
   44.845       50
   44.860       60
   44.875       53
   44.890       48
   44.905       44
   44.920       44
   44.935       46
   44.950       51
   44.965       42
   44.980       43
   44.995       50
   45.010       57
   45.025       40
   45.040       44
   45.055       46
   45.070       51
   45.085       50
   45.100       56
   45.115       55
   45.130       50
   45.145       56
   45.160       49
   45.175       50
   45.190       52
   45.205       50
   45.220       54
   45.235       53
   45.250       50
   45.265       48
   45.280       59
   45.295       61
   45.310       57
   45.325       52
   45.340       46
   45.355       37
   45.370       41
   45.385       50
   45.400       63
   45.415       59
   45.430       51
   45.445       50
   45.460       46
   45.475       49
   45.490       46
   45.505       49
   45.520       38
   45.535       48
   45.550       52
   45.565       42
   45.580       45
   45.595       50
   45.610       43
   45.625       47
   45.640       48
   45.655       40
   45.670       39
   45.685       40
   45.700       41
   45.715       49
   45.730       38
   45.745       45
   45.760       42
   45.775       45
   45.790       43
   45.805       51
   45.820       47
   45.835       42
   45.850       42
   45.865       61
   45.880       52
   45.895       54
   45.910       41
   45.925       36
   45.940       41
   45.955       41
   45.970       49
   45.985       40
