    4.000       44
    4.015       44
    4.030       49
    4.045       54
    4.060       52
    4.075       53
    4.090       66
    4.105       65
    4.120       55
    4.135       60
    4.150       51
    4.165       45
    4.180       54
    4.195       55
    4.210       53
    4.225       47
    4.240       39
    4.255       52
    4.270       62
    4.285       47
    4.300       51
    4.315       37
    4.330       43
    4.345       50
    4.360       55
    4.375       51
    4.390       45
    4.405       46
    4.420       50
    4.435       49
    4.450       48
    4.465       52
    4.480       47
    4.495       50
    4.510       46
    4.525       42
    4.540       42
    4.555       47
    4.570       40
    4.585       47
    4.600       50
    4.615       46
    4.630       46
    4.645       41
    4.660       43
    4.675       48
    4.690       50
    4.705       51
    4.720       58
    4.735       53
    4.750       45
    4.765       39
    4.780       45
    4.795       51
    4.810       38
    4.825       44
    4.840       54
    4.855       46
    4.870       48
    4.885       53
    4.900       46
    4.915       47
    4.930       39
    4.945       41
    4.960       47
    4.975       55
    4.990       48
    5.005       52
    5.020       57
    5.035       51
    5.050       48
    5.065       43
    5.080       41
    5.095       36
    5.110       41
    5.125       57
    5.140       47
    5.155       47
    5.170       42
    5.185       43
    5.200       43
    5.215       45
    5.230       47
    5.245       49
    5.260       38
    5.275       34
    5.290       41
    5.305       44
    5.320       38
    5.335       42
    5.350       41
    5.365       38
    5.380       42
    5.395       47
    5.410       47
    5.425       46
    5.440       43
    5.455       43
    5.470       44
    5.485       47
    5.500       47
    5.515       45
    5.530       41
    5.545       48
    5.560       56
    5.575       49
    5.590       49
    5.605       40
    5.620       45
    5.635       51
    5.650       42
    5.665       45
    5.680       45
    5.695       41
    5.710       43
    5.725       44
    5.740       37
    5.755       45
    5.770       43
    5.785       45
    5.800       32
    5.815       39
    5.830       53
    5.845       47
    5.860       45
    5.875       49
    5.890       60
    5.905       49
    5.920       40
    5.935       46
    5.950       50
    5.965       41
    5.980       39
    5.995       52
    6.010       46
    6.025       44
    6.040       54
    6.055       49
    6.070       55
    6.085       50
    6.100       48
    6.115       47
    6.130       44
    6.145       42
    6.160       48
    6.175       43
    6.190       49
    6.205       46
    6.220       47
    6.235       46
    6.250       54
    6.265       48
    6.280       54
    6.295       54
    6.310       52
    6.325       73
    6.340       70
    6.355       76
    6.370       81
    6.385       79
    6.400       93
    6.415       90
    6.430       84
    6.445       97
    6.460      112
    6.475      112
    6.490      126
    6.505      142
    6.520      163
    6.535      152
    6.550      184
    6.565      184
    6.580      190
    6.595      207
    6.610      258
    6.625      327
    6.640      388
    6.655      339
    6.670      337
    6.685      351
    6.700      364
    6.715      263
    6.730      180
    6.745      107
    6.760       54
    6.775       49
    6.790       43
    6.805       40
    6.820       49
    6.835       43
    6.850       53
    6.865       53
    6.880       44
    6.895       49
    6.910       35
    6.925       56
    6.940       45
    6.955       57
    6.970       54
    6.985       45
    7.000       48
    7.015       53
    7.030       50
    7.045       48
    7.060       69
    7.075       62
    7.090       64
    7.105       61
    7.120       57
    7.135       68
    7.150       74
    7.165       73
    7.180       92
    7.195       88
    7.210       90
    7.225      109
    7.240      109
    7.255       78
    7.270       66
    7.285       57
    7.300       51
    7.315       32
    7.330       42
    7.345       37
    7.360       44
    7.375       33
    7.390       40
    7.405       41
    7.420       38
    7.435       37
    7.450       43
    7.465       47
    7.480       35
    7.495       32
    7.510       36
    7.525       41
    7.540       57
    7.555       32
    7.570       42
    7.585       33
    7.600       36
    7.615       46
    7.630       46
    7.645       49
    7.660       41
    7.675       44
    7.690       51
    7.705       51
    7.720       46
    7.735       51
    7.750       52
    7.765       42
    7.780       55
    7.795       42
    7.810       48
    7.825       40
    7.840       39
    7.855       37
    7.870       39
    7.885       40
    7.900       37
    7.915       48
    7.930       41
    7.945       39
    7.960       46
    7.975       48
    7.990       44
    8.005       44
    8.020       39
    8.035       42
    8.050       42
    8.065       40
    8.080       43
    8.095       42
    8.110       33
    8.125       41
    8.140       40
    8.155       42
    8.170       43
    8.185       42
    8.200       42
    8.215       36
    8.230       43
    8.245       47
    8.260       47
    8.275       47
    8.290       49
    8.305       51
    8.320       42
    8.335       44
    8.350       42
    8.365       38
    8.380       42
    8.395       45
    8.410       44
    8.425       39
    8.440       42
    8.455       43
    8.470       51
    8.485       46
    8.500       46
    8.515       43
    8.530       46
    8.545       46
    8.560       52
    8.575       49
    8.590       43
    8.605       48
    8.620       47
    8.635       52
    8.650       58
    8.665       48
    8.680       40
    8.695       47
    8.710       51
    8.725       46
    8.740       44
    8.755       53
    8.770       37
    8.785       48
    8.800       46
    8.815       42
    8.830       43
    8.845       50
    8.860       38
    8.875       43
    8.890       40
    8.905       40
    8.920       39
    8.935       34
    8.950       31
    8.965       52
    8.980       36
    8.995       39
    9.010       48
    9.025       55
    9.040       37
    9.055       37
    9.070       35
    9.085       35
    9.100       35
    9.115       40
    9.130       46
    9.145       47
    9.160       49
    9.175       36
    9.190       42
    9.205       41
    9.220       35
    9.235       42
    9.250       47
    9.265       42
    9.280       35
    9.295       39
    9.310       39
    9.325       45
    9.340       49
    9.355       59
    9.370       50
    9.385       48
    9.400       44
    9.415       41
    9.430       47
    9.445       47
    9.460       44
    9.475       53
    9.490       45
    9.505       46
    9.520       47
    9.535       48
    9.550       39
    9.565       38
    9.580       35
    9.595       55
    9.610       59
    9.625       45
    9.640       40
    9.655       41
    9.670       43
    9.685       39
    9.700       32
    9.715       42
    9.730       46
    9.745       41
    9.760       33
    9.775       42
    9.790       46
    9.805       48
    9.820       52
    9.835       56
    9.850       58
    9.865       52
    9.880       59
    9.895       58
    9.910       38
    9.925       44
    9.940       35
    9.955       39
    9.970       44
    9.985       46
   10.000       34
   10.015       44
   10.030       42
   10.045       44
   10.060       42
   10.075       44
   10.090       41
   10.105       49
   10.120       44
   10.135       45
   10.150       48
   10.165       43
   10.180       58
   10.195       58
   10.210       54
   10.225       59
   10.240       50
   10.255       53
   10.270       55
   10.285       53
   10.300       57
   10.315       50
   10.330       46
   10.345       49
   10.360       45
   10.375       58
   10.390       59
   10.405       61
   10.420       59
   10.435       57
   10.450       72
   10.465       84
   10.480       77
   10.495       73
   10.510       75
   10.525       98
   10.540      109
   10.555       98
   10.570       78
   10.585       67
   10.600       58
   10.615       51
   10.630       47
   10.645       43
   10.660       45
   10.675       44
   10.690       59
   10.705       56
   10.720       65
   10.735       61
   10.750       63
   10.765       71
   10.780       91
   10.795      108
   10.810      102
   10.825      115
   10.840      140
   10.855      155
   10.870      146
   10.885      144
   10.900      188
   10.915      258
   10.930      244
   10.945      206
   10.960      164
   10.975      100
   10.990       54
   11.005       52
   11.020       46
   11.035       49
   11.050       51
   11.065       45
   11.080       42
   11.095       46
   11.110       46
   11.125       38
   11.140       41
   11.155       48
   11.170       47
   11.185       41
   11.200       42
   11.215       57
   11.230       67
   11.245       66
   11.260       61
   11.275       88
   11.290       88
   11.305       84
   11.320       92
   11.335       72
   11.350       56
   11.365       60
   11.380       51
   11.395       42
   11.410       49
   11.425       56
   11.440       49
   11.455       57
   11.470       61
   11.485       68
   11.500       62
   11.515       71
   11.530       48
   11.545       42
   11.560       46
   11.575       46
   11.590       38
   11.605       33
   11.620       37
   11.635       48
   11.650       38
   11.665       40
   11.680       30
   11.695       36
   11.710       44
   11.725       47
   11.740       42
   11.755       51
   11.770       67
   11.785       51
   11.800       60
   11.815       70
   11.830       51
   11.845       62
   11.860       53
   11.875       46
   11.890       65
   11.905       58
   11.920       67
   11.935       79
   11.950       60
   11.965       59
   11.980       48
   11.995       43
   12.010       50
   12.025       49
   12.040       48
   12.055       47
   12.070       53
   12.085       54
   12.100       55
   12.115       54
   12.130       59
   12.145       66
   12.160       55
   12.175       51
   12.190       48
   12.205       42
   12.220       42
   12.235       41
   12.250       40
   12.265       32
   12.280       40
   12.295       39
   12.310       37
   12.325       38
   12.340       33
   12.355       37
   12.370       40
   12.385       42
   12.400       34
   12.415       40
   12.430       35
   12.445       34
   12.460       38
   12.475       42
   12.490       46
   12.505       50
   12.520       42
   12.535       53
   12.550       48
   12.565       47
   12.580       50
   12.595       55
   12.610       67
   12.625       91
   12.640      104
   12.655      100
   12.670      125
   12.685      128
   12.700      146
   12.715      182
   12.730      218
   12.745      286
   12.760      305
   12.775      294
   12.790      231
   12.805      220
   12.820      181
   12.835      179
   12.850      152
   12.865      138
   12.880       98
   12.895       71
   12.910       57
   12.925       46
   12.940       48
   12.955       60
   12.970       57
   12.985       55
   13.000       62
   13.015       67
   13.030       75
   13.045       89
   13.060      105
   13.075      125
   13.090      132
   13.105      154
   13.120      192
   13.135      240
   13.150      266
   13.165      211
   13.180      174
   13.195      155
   13.210      149
   13.225      163
   13.240      202
   13.255      241
   13.270      285
   13.285      321
   13.300      393
   13.315      472
   13.330      607
   13.345      559
   13.360      480
   13.375      464
   13.390      501
   13.405      607
   13.420      835
   13.435     1051
   13.450      966
   13.465      672
   13.480      404
   13.495      216
   13.510      110
   13.525       97
   13.540       99
   13.555       94
   13.570      109
   13.585      117
   13.600      115
   13.615      135
   13.630      162
   13.645      197
   13.660      226
   13.675      246
   13.690      274
   13.705      261
   13.720      261
   13.735      210
   13.750      140
   13.765       77
   13.780       56
   13.795       42
   13.810       49
   13.825       38
   13.840       50
   13.855       57
   13.870       60
   13.885       56
   13.900       42
   13.915       61
   13.930       75
   13.945       76
   13.960       70
   13.975       64
   13.990       64
   14.005       50
   14.020       49
   14.035       35
   14.050       34
   14.065       42
   14.080       39
   14.095       37
   14.110       45
   14.125       41
   14.140       34
   14.155       34
   14.170       40
   14.185       43
   14.200       55
   14.215       61
   14.230       54
   14.245       65
   14.260       64
   14.275       86
   14.290       97
   14.305      107
   14.320      126
   14.335      127
   14.350      129
   14.365      119
   14.380      125
   14.395      140
   14.410      132
   14.425      144
   14.440      149
   14.455      127
   14.470      127
   14.485      148
   14.500      156
   14.515      164
   14.530      153
   14.545      155
   14.560      151
   14.575      182
   14.590      193
   14.605      255
   14.620      320
   14.635      338
   14.650      287
   14.665      165
   14.680      100
   14.695       57
   14.710       47
   14.725       34
   14.740       39
   14.755       42
   14.770       40
   14.785       45
   14.800       36
   14.815       29
   14.830       31
   14.845       45
   14.860       41
   14.875       38
   14.890       32
   14.905       37
   14.920       41
   14.935       43
   14.950       43
   14.965       47
   14.980       42
   14.995       56
   15.010       59
   15.025       68
   15.040       92
   15.055       96
   15.070      120
   15.085      147
   15.100      198
   15.115      225
   15.130      275
   15.145      332
   15.160      373
   15.175      431
   15.190      540
   15.205      611
   15.220      788
   15.235      792
   15.250      604
   15.265      411
   15.280      251
   15.295      167
   15.310      149
   15.325      112
   15.340       89
   15.355      112
   15.370      112
   15.385      127
   15.400      152
   15.415      157
   15.430      179
   15.445      195
   15.460      198
   15.475      181
   15.490      167
   15.505      182
   15.520      178
   15.535      165
   15.550      160
   15.565      162
   15.580      157
   15.595      166
   15.610      179
   15.625      195
   15.640      206
   15.655      215
   15.670      209
   15.685      220
   15.700      314
   15.715      359
   15.730      382
   15.745      361
   15.760      254
   15.775      174
   15.790      156
   15.805      138
   15.820      147
   15.835      149
   15.850      186
   15.865      198
   15.880      232
   15.895      276
   15.910      311
   15.925      301
   15.940      241
   15.955      171
   15.970      123
   15.985       87
   16.000       69
   16.015       59
   16.030       53
   16.045       52
   16.060       40
   16.075       48
   16.090       53
   16.105       48
   16.120       61
   16.135       75
   16.150       96
   16.165       97
   16.180      141
   16.195      161
   16.210      166
   16.225      219
   16.240      281
   16.255      281
   16.270      284
   16.285      289
   16.300      275
   16.315      198
   16.330      133
   16.345       86
   16.360       81
   16.375       83
   16.390       87
   16.405       94
   16.420      115
   16.435      150
   16.450      156
   16.465      157
   16.480      173
   16.495      192
   16.510      188
   16.525      241
   16.540      292
   16.555      410
   16.570      477
   16.585      471
   16.600      397
   16.615      294
   16.630      253
   16.645      238
   16.660      248
   16.675      308
   16.690      392
   16.705      390
   16.720      388
   16.735      348
   16.750      308
   16.765      284
   16.780      270
   16.795      209
   16.810      225
   16.825      270
   16.840      289
   16.855      308
   16.870      291
   16.885      280
   16.900      278
   16.915      299
   16.930      337
   16.945      336
   16.960      277
   16.975      209
   16.990      154
   17.005      125
   17.020      125
   17.035      126
   17.050      110
   17.065      117
   17.080      139
   17.095      169
   17.110      205
   17.125      235
   17.140      269
   17.155      279
   17.170      248
   17.185      229
   17.200      181
   17.215      166
   17.230      156
   17.245      156
   17.260      159
   17.275      195
   17.290      224
   17.305      267
   17.320      357
   17.335      411
   17.350      466
   17.365      520
   17.380      461
   17.395      350
   17.410      236
   17.425      179
   17.440      144
   17.455      125
   17.470      129
   17.485      119
   17.500      117
   17.515       99
   17.530      112
   17.545      118
   17.560      128
   17.575      144
   17.590      162
   17.605      202
   17.620      253
   17.635      275
   17.650      233
   17.665      182
   17.680      139
   17.695       93
   17.710       75
   17.725       69
   17.740       57
   17.755       81
   17.770       91
   17.785      112
   17.800      111
   17.815      113
   17.830       84
   17.845       83
   17.860       85
   17.875       92
   17.890      107
   17.905      100
   17.920       91
   17.935       86
   17.950       70
   17.965       59
   17.980       72
   17.995       57
   18.010       61
   18.025       52
   18.040       46
   18.055       44
   18.070       51
   18.085       50
   18.100       42
   18.115       50
   18.130       46
   18.145       35
   18.160       40
   18.175       38
   18.190       43
   18.205       35
   18.220       46
   18.235       37
   18.250       38
   18.265       50
   18.280       41
   18.295       45
   18.310       50
   18.325       57
   18.340       74
   18.355       82
   18.370      100
   18.385      138
   18.400      131
   18.415      163
   18.430      197
   18.445      216
   18.460      228
   18.475      179
   18.490      154
   18.505      123
   18.520       89
   18.535       77
   18.550       68
   18.565       62
   18.580       53
   18.595       55
   18.610       50
   18.625       47
   18.640       63
   18.655       65
   18.670       73
   18.685       77
   18.700      104
   18.715      114
   18.730      162
   18.745      168
   18.760      140
   18.775      129
   18.790      136
   18.805      152
   18.820      152
   18.835      151
   18.850      117
   18.865       97
   18.880       78
   18.895       65
   18.910       65
   18.925       58
   18.940       43
   18.955       47
   18.970       62
   18.985       53
   19.000       70
   19.015       67
   19.030       84
   19.045       86
   19.060       91
   19.075       96
   19.090       94
   19.105      109
   19.120       92
   19.135      103
   19.150      121
   19.165       96
   19.180       73
   19.195       52
   19.210       38
   19.225       45
   19.240       36
   19.255       50
   19.270       40
   19.285       38
   19.300       29
   19.315       34
   19.330       31
   19.345       31
   19.360       32
   19.375       43
   19.390       38
   19.405       40
   19.420       50
   19.435       47
   19.450       52
   19.465       55
   19.480       69
   19.495       69
   19.510       74
   19.525       72
   19.540       86
   19.555       84
   19.570       58
   19.585       57
   19.600       55
   19.615       54
   19.630       57
   19.645       68
   19.660       68
   19.675       62
   19.690       74
   19.705       66
   19.720       85
   19.735      119
   19.750      134
   19.765      143
   19.780      170
   19.795      173
   19.810      149
   19.825      123
   19.840      104
   19.855       94
   19.870       61
   19.885       63
   19.900       71
   19.915       87
   19.930       89
   19.945       99
   19.960      123
   19.975      169
   19.990      218
   20.005      252
   20.020      327
   20.035      430
   20.050      517
   20.065      586
   20.080      501
   20.095      390
   20.110      302
   20.125      243
   20.140      211
   20.155      218
   20.170      247
   20.185      277
   20.200      279
   20.215      244
   20.230      207
   20.245      150
   20.260      113
   20.275       83
   20.290       63
   20.305       55
   20.320       58
   20.335       66
   20.350       77
   20.365       83
   20.380       87
   20.395      100
   20.410       87
   20.425       76
   20.440       56
   20.455       52
   20.470       47
   20.485       39
   20.500       45
   20.515       38
   20.530       32
   20.545       31
   20.560       31
   20.575       33
   20.590       31
   20.605       41
   20.620       37
   20.635       47
   20.650       47
   20.665       64
   20.680       57
   20.695       67
   20.710       74
   20.725       91
   20.740       88
   20.755       80
   20.770       66
   20.785       64
   20.800       46
   20.815       50
   20.830       54
   20.845       59
   20.860       56
   20.875       80
   20.890       80
   20.905      103
   20.920      136
   20.935      159
   20.950      201
   20.965      182
   20.980      175
   20.995      157
   21.010      157
   21.025      198
   21.040      208
   21.055      186
   21.070      129
   21.085      107
   21.100       77
   21.115       66
   21.130       62
   21.145       55
   21.160       56
   21.175       55
   21.190       48
   21.205       53
   21.220       41
   21.235       39
   21.250       44
   21.265       46
   21.280       43
   21.295       58
   21.310       72
   21.325       58
   21.340       63
   21.355       69
   21.370       85
   21.385      102
   21.400      100
   21.415      100
   21.430       82
   21.445       65
   21.460       51
   21.475       45
   21.490       40
   21.505       35
   21.520       34
   21.535       30
   21.550       31
   21.565       36
   21.580       30
   21.595       33
   21.610       42
   21.625       40
   21.640       33
   21.655       59
   21.670       51
   21.685       62
   21.700       79
   21.715      102
   21.730       96
   21.745      137
   21.760      157
   21.775      188
   21.790      178
   21.805      148
   21.820      151
   21.835      125
   21.850      117
   21.865      121
   21.880      130
   21.895      163
   21.910      185
   21.925      266
   21.940      344
   21.955      433
   21.970      479
   21.985      434
   22.000      325
   22.015      246
   22.030      160
   22.045      135
   22.060      119
   22.075      106
   22.090       91
   22.105       96
   22.120       97
   22.135      104
   22.150       83
   22.165       55
   22.180       53
   22.195       43
   22.210       36
   22.225       38
   22.240       33
   22.255       37
   22.270       37
   22.285       49
   22.300       51
   22.315       53
   22.330       45
   22.345       38
   22.360       49
   22.375       51
   22.390       43
   22.405       60
   22.420       63
   22.435       55
   22.450       63
   22.465       86
   22.480       99
   22.495       90
   22.510       92
   22.525      105
   22.540       91
   22.555      107
   22.570      110
   22.585      115
   22.600       97
   22.615       77
   22.630       64
   22.645       55
   22.660       54
   22.675       66
   22.690       76
   22.705       87
   22.720      102
   22.735       90
   22.750      105
   22.765       89
   22.780      111
   22.795      134
   22.810      155
   22.825      135
   22.840      112
   22.855       99
   22.870       94
   22.885       84
   22.900       85
   22.915       97
   22.930      103
   22.945      102
   22.960      113
   22.975      149
   22.990      165
   23.005      157
   23.020      161
   23.035      146
   23.050      130
   23.065      105
   23.080       99
   23.095       79
   23.110       68
   23.125       57
   23.140       58
   23.155       42
   23.170       45
   23.185       46
   23.200       43
   23.215       54
   23.230       79
   23.245       78
   23.260       77
   23.275       76
   23.290       61
   23.305       62
   23.320       65
   23.335       74
   23.350       82
   23.365       77
   23.380       93
   23.395       92
   23.410       80
   23.425       78
   23.440       46
   23.455       40
   23.470       37
   23.485       43
   23.500       35
   23.515       49
   23.530       53
   23.545       50
   23.560       65
   23.575       67
   23.590       53
   23.605       56
   23.620       53
   23.635       55
   23.650       62
   23.665       61
   23.680       67
   23.695       78
   23.710       62
   23.725       73
   23.740       75
   23.755       69
   23.770       63
   23.785       61
   23.800       50
   23.815       55
   23.830       47
   23.845       29
   23.860       39
   23.875       43
   23.890       35
   23.905       33
   23.920       36
   23.935       42
   23.950       51
   23.965       60
   23.980       57
   23.995       65
   24.010       77
   24.025       75
   24.040       65
   24.055       59
   24.070       58
   24.085       54
   24.100       55
   24.115       77
   24.130       77
   24.145       78
   24.160       84
   24.175      102
   24.190       97
   24.205       79
   24.220       69
   24.235       57
   24.250       64
   24.265       47
   24.280       35
   24.295       43
   24.310       44
   24.325       40
   24.340       46
   24.355       48
   24.370       54
   24.385       68
   24.400       73
   24.415       86
   24.430       98
   24.445       96
   24.460       64
   24.475       53
   24.490       42
   24.505       31
   24.520       31
   24.535       31
   24.550       37
   24.565       42
   24.580       33
   24.595       27
   24.610       38
   24.625       44
   24.640       41
   24.655       41
   24.670       45
   24.685       44
   24.700       48
   24.715       48
   24.730       61
   24.745       68
   24.760       71
   24.775       77
   24.790       82
   24.805       91
   24.820       92
   24.835       68
   24.850       66
   24.865       65
   24.880       48
   24.895       53
   24.910       58
   24.925       69
   24.940       59
   24.955       72
   24.970       58
   24.985       49
   25.000       43
   25.015       40
   25.030       36
   25.045       43
   25.060       39
   25.075       48
   25.090       65
   25.105       64
   25.120       63
   25.135       89
   25.150      117
   25.165      137
   25.180      108
   25.195       94
   25.210       82
   25.225       79
   25.240       62
   25.255       62
   25.270       65
   25.285       55
   25.300       58
   25.315       55
   25.330       59
   25.345       65
   25.360       69
   25.375       68
   25.390       71
   25.405       73
   25.420       71
   25.435       51
   25.450       50
   25.465       50
   25.480       39
   25.495       41
   25.510       46
   25.525       51
   25.540       66
   25.555       75
   25.570       93
   25.585      107
   25.600      114
   25.615      108
   25.630      100
   25.645       79
   25.660       60
   25.675       66
   25.690       59
   25.705       55
   25.720       56
   25.735       62
   25.750       55
   25.765       69
   25.780       88
   25.795      109
   25.810      138
   25.825      161
   25.840      193
   25.855      210
   25.870      204
   25.885      181
   25.900      155
   25.915      110
   25.930       86
   25.945       94
   25.960       80
   25.975       57
   25.990       70
   26.005       93
   26.020      123
   26.035      115
   26.050      127
   26.065      151
   26.080      178
   26.095      157
   26.110      133
   26.125       92
   26.140       81
   26.155       83
   26.170       90
   26.185       70
   26.200       72
   26.215       67
   26.230       59
   26.245       56
   26.260       60
   26.275       72
   26.290       81
   26.305       86
   26.320       82
   26.335       76
   26.350       97
   26.365      115
   26.380       97
   26.395       93
   26.410       84
   26.425       63
   26.440       49
   26.455       62
   26.470       54
   26.485       49
   26.500       63
   26.515       74
   26.530       73
   26.545       88
   26.560       76
   26.575       67
   26.590       63
   26.605       56
   26.620       57
   26.635       41
   26.650       33
   26.665       37
   26.680       36
   26.695       40
   26.710       47
   26.725       39
   26.740       35
   26.755       48
   26.770       63
   26.785       50
   26.800       56
   26.815       75
   26.830       88
   26.845      102
   26.860       91
   26.875       77
   26.890       61
   26.905       62
   26.920       68
   26.935       49
   26.950       40
   26.965       54
   26.980       60
   26.995       47
   27.010       69
   27.025       87
   27.040      108
   27.055      115
   27.070      124
   27.085      149
   27.100      153
   27.115      130
   27.130      143
   27.145      147
   27.160      154
   27.175      156
   27.190      155
   27.205      121
   27.220      100
   27.235       86
   27.250       68
   27.265       60
   27.280       60
   27.295       48
   27.310       54
   27.325       59
   27.340       51
   27.355       50
   27.370       49
   27.385       64
   27.400       67
   27.415       67
   27.430       85
   27.445       85
   27.460       71
   27.475       63
   27.490       59
   27.505       60
   27.520       62
   27.535       70
   27.550       64
   27.565       68
   27.580       72
   27.595       84
   27.610       86
   27.625      101
   27.640      119
   27.655      101
   27.670      114
   27.685      111
   27.700      135
   27.715      127
   27.730      155
   27.745      148
   27.760      193
   27.775      193
   27.790      205
   27.805      208
   27.820      207
   27.835      192
   27.850      174
   27.865      153
   27.880      131
   27.895      119
   27.910      110
   27.925       97
   27.940       87
   27.955       78
   27.970       66
   27.985       70
   28.000       62
   28.015       85
   28.030       95
   28.045      100
   28.060      124
   28.075      131
   28.090      136
   28.105      125
   28.120      113
   28.135      117
   28.150       83
   28.165       81
   28.180       84
   28.195       66
   28.210       76
   28.225       62
   28.240       78
   28.255       65
   28.270       76
   28.285       62
   28.300       65
   28.315       75
   28.330       85
   28.345       63
   28.360       69
   28.375       52
   28.390       63
   28.405       70
   28.420       64
   28.435       88
   28.450       91
   28.465       89
   28.480      105
   28.495       90
   28.510       86
   28.525       97
   28.540      104
   28.555      106
   28.570       80
   28.585       88
   28.600       84
   28.615       76
   28.630       86
   28.645      100
   28.660       77
   28.675       59
   28.690       46
   28.705       45
   28.720       42
   28.735       38
   28.750       42
   28.765       47
   28.780       41
   28.795       41
   28.810       43
   28.825       53
   28.840       53
   28.855       65
   28.870       73
   28.885       82
   28.900       75
   28.915       76
   28.930       63
   28.945       68
   28.960       62
   28.975       52
   28.990       54
   29.005       61
   29.020       53
   29.035       58
   29.050       67
   29.065       77
   29.080      100
   29.095       95
   29.110       95
   29.125       90
   29.140       98
   29.155       97
   29.170      102
   29.185       92
   29.200      110
   29.215       94
   29.230      102
   29.245      121
   29.260      135
   29.275      135
   29.290      118
   29.305      105
   29.320      100
   29.335       82
   29.350       89
   29.365       91
   29.380       76
   29.395       56
   29.410       67
   29.425       80
   29.440       70
   29.455       61
   29.470       66
   29.485       78
   29.500       65
   29.515       65
   29.530       65
   29.545       59
   29.560       57
   29.575       57
   29.590       50
   29.605       43
   29.620       44
   29.635       39
   29.650       55
   29.665       50
   29.680       69
   29.695       66
   29.710       74
   29.725       77
   29.740       75
   29.755       86
   29.770      105
   29.785      108
   29.800      101
   29.815      115
   29.830       87
   29.845      118
   29.860      101
   29.875      118
   29.890      138
   29.905      137
   29.920      133
   29.935      109
   29.950      106
   29.965      102
   29.980      103
   29.995       89
   30.010       85
   30.025       75
   30.040       73
   30.055       66
   30.070       69
   30.085       64
   30.100       62
   30.115       58
   30.130       51
   30.145       48
   30.160       40
   30.175       39
   30.190       43
   30.205       50
   30.220       43
   30.235       36
   30.250       39
   30.265       35
   30.280       39
   30.295       36
   30.310       41
   30.325       33
   30.340       41
   30.355       48
   30.370       34
   30.385       44
   30.400       55
   30.415       45
   30.430       53
   30.445       49
   30.460       42
   30.475       40
   30.490       42
   30.505       65
   30.520       58
   30.535       47
   30.550       40
   30.565       51
   30.580       46
   30.595       44
   30.610       54
   30.625       53
   30.640       56
   30.655       49
   30.670       48
   30.685       60
   30.700       57
   30.715       58
   30.730       80
   30.745       98
   30.760       95
   30.775       85
   30.790       94
   30.805      114
   30.820      104
   30.835      108
   30.850      118
   30.865      102
   30.880      102
   30.895      119
   30.910       90
   30.925       70
   30.940       64
   30.955       69
   30.970       55
   30.985       50
   31.000       52
   31.015       60
   31.030       43
   31.045       47
   31.060       44
   31.075       55
   31.090       59
   31.105       63
   31.120       63
   31.135       78
   31.150       91
   31.165       87
   31.180       97
   31.195      108
   31.210      103
   31.225      104
   31.240       84
   31.255       96
   31.270       76
   31.285       83
   31.300       71
   31.315       59
   31.330       50
   31.345       55
   31.360       79
   31.375       64
   31.390       67
   31.405       71
   31.420       77
   31.435       80
   31.450       68
   31.465       57
   31.480       80
   31.495       78
   31.510       72
   31.525       75
   31.540       76
   31.555       84
   31.570       88
   31.585       81
   31.600       71
   31.615       73
   31.630       76
   31.645       79
   31.660       79
   31.675       66
   31.690       62
   31.705       66
   31.720       69
   31.735       64
   31.750       89
   31.765      100
   31.780      103
   31.795      107
   31.810       83
   31.825       86
   31.840       87
   31.855       87
   31.870       82
   31.885       74
   31.900       90
   31.915       95
   31.930       95
   31.945       96
   31.960      100
   31.975       95
   31.990       96
   32.005       81
   32.020       65
   32.035       75
   32.050       77
   32.065       91
   32.080      100
   32.095       88
   32.110       90
   32.125       94
   32.140      100
   32.155      101
   32.170       89
   32.185       93
   32.200       97
   32.215       90
   32.230       72
   32.245       78
   32.260       71
   32.275       65
   32.290       68
   32.305       84
   32.320       89
   32.335       91
   32.350      103
   32.365      108
   32.380      102
   32.395       98
   32.410       83
   32.425       73
   32.440       54
   32.455       48
   32.470       50
   32.485       50
   32.500       66
   32.515       63
   32.530       55
   32.545       57
   32.560       55
   32.575       58
   32.590       68
   32.605       60
   32.620       74
   32.635       62
   32.650       59
   32.665       58
   32.680       47
   32.695       55
   32.710       41
   32.725       37
   32.740       54
   32.755       48
   32.770       46
   32.785       42
   32.800       35
   32.815       39
   32.830       26
   32.845       36
   32.860       41
   32.875       40
   32.890       40
   32.905       35
   32.920       37
   32.935       41
   32.950       34
   32.965       32
   32.980       33
   32.995       38
   33.010       29
   33.025       27
   33.040       42
   33.055       39
   33.070       46
   33.085       51
   33.100       49
   33.115       55
   33.130       67
   33.145       82
   33.160       59
   33.175       87
   33.190       96
   33.205       90
   33.220       85
   33.235       65
   33.250       70
   33.265       62
   33.280       51
   33.295       64
   33.310       50
   33.325       63
   33.340       54
   33.355       50
   33.370       49
   33.385       55
   33.400       55
   33.415       64
   33.430       49
   33.445       60
   33.460       59
   33.475       49
   33.490       44
   33.505       60
   33.520       50
   33.535       47
   33.550       65
   33.565       70
   33.580       42
   33.595       48
   33.610       58
   33.625       62
   33.640       60
   33.655       70
   33.670       89
   33.685       93
   33.700      109
   33.715      110
   33.730      120
   33.745      147
   33.760      137
   33.775      123
   33.790      113
   33.805      114
   33.820      104
   33.835      101
   33.850       75
   33.865       76
   33.880       68
   33.895       83
   33.910       77
   33.925       69
   33.940       69
   33.955       66
   33.970       71
   33.985       64
   34.000       75
   34.015       84
   34.030       95
   34.045       97
   34.060       93
   34.075       97
   34.090       84
   34.105       94
   34.120       67
   34.135       68
   34.150       73
   34.165       66
   34.180       68
   34.195       80
   34.210       76
   34.225       79
   34.240       84
   34.255       76
   34.270       81
   34.285       76
   34.300       81
   34.315       89
   34.330       78
   34.345       99
   34.360       64
   34.375       63
   34.390       64
   34.405       71
   34.420       61
   34.435       45
   34.450       48
   34.465       42
   34.480       33
   34.495       47
   34.510       42
   34.525       45
   34.540       43
   34.555       41
   34.570       47
   34.585       43
   34.600       44
   34.615       48
   34.630       44
   34.645       41
   34.660       47
   34.675       47
   34.690       57
   34.705       52
   34.720       68
   34.735       73
   34.750       72
   34.765       84
   34.780       84
   34.795       64
   34.810       64
   34.825       63
   34.840       54
   34.855       47
   34.870       47
   34.885       48
   34.900       43
   34.915       38
   34.930       38
   34.945       35
   34.960       37
   34.975       43
   34.990       48
   35.005       55
   35.020       59
   35.035       54
   35.050       58
   35.065       56
   35.080       50
   35.095       58
   35.110       54
   35.125       49
   35.140       45
   35.155       49
   35.170       45
   35.185       46
   35.200       50
   35.215       45
   35.230       53
   35.245       65
   35.260       57
   35.275       70
   35.290       71
   35.305       67
   35.320       64
   35.335       56
   35.350       61
   35.365       64
   35.380       54
   35.395       57
   35.410       68
   35.425       53
   35.440       52
   35.455       66
   35.470       57
   35.485       64
   35.500       71
   35.515       67
   35.530       77
   35.545       73
   35.560       73
   35.575       68
   35.590       78
   35.605       84
   35.620       72
   35.635       88
   35.650       94
   35.665       80
   35.680       90
   35.695       90
   35.710      106
   35.725      107
   35.740      108
   35.755       91
   35.770       93
   35.785      105
   35.800       89
   35.815      110
   35.830      104
   35.845       99
   35.860      102
   35.875      102
   35.890       87
   35.905       77
   35.920       71
   35.935       57
   35.950       66
   35.965       71
   35.980       75
   35.995       67
   36.010       71
   36.025       45
   36.040       47
   36.055       42
   36.070       48
   36.085       43
   36.100       47
   36.115       53
   36.130       57
   36.145       61
   36.160       42
   36.175       39
   36.190       36
   36.205       39
   36.220       42
   36.235       35
   36.250       57
   36.265       54
   36.280       46
   36.295       44
   36.310       60
   36.325       55
   36.340       42
   36.355       41
   36.370       42
   36.385       42
   36.400       49
   36.415       47
   36.430       44
   36.445       47
   36.460       51
   36.475       38
   36.490       41
   36.505       45
   36.520       53
   36.535       60
   36.550       59
   36.565       52
   36.580       49
   36.595       56
   36.610       62
   36.625       52
   36.640       55
   36.655       52
   36.670       41
   36.685       39
   36.700       48
   36.715       44
   36.730       52
   36.745       48
   36.760       44
   36.775       55
   36.790       56
   36.805       63
   36.820       47
   36.835       44
   36.850       59
   36.865       38
   36.880       39
   36.895       53
   36.910       47
   36.925       38
   36.940       49
   36.955       54
   36.970       51
   36.985       67
   37.000       69
   37.015       71
   37.030       75
   37.045       74
   37.060       88
   37.075       77
   37.090       62
   37.105       63
   37.120       61
   37.135       67
   37.150       57
   37.165       65
   37.180       66
   37.195       54
   37.210       64
   37.225       47
   37.240       41
   37.255       43
   37.270       53
   37.285       63
   37.300       65
   37.315       68
   37.330       67
   37.345       71
   37.360       86
   37.375       77
   37.390       63
   37.405       67
   37.420       64
   37.435       58
   37.450       62
   37.465       57
   37.480       54
   37.495       63
   37.510       69
   37.525       77
   37.540       81
   37.555       79
   37.570       78
   37.585       68
   37.600       56
   37.615       49
   37.630       52
   37.645       39
   37.660       40
   37.675       39
   37.690       40
   37.705       33
   37.720       34
   37.735       47
   37.750       31
   37.765       44
   37.780       44
   37.795       44
   37.810       46
   37.825       50
   37.840       47
   37.855       42
   37.870       50
   37.885       53
   37.900       54
   37.915       61
   37.930       61
   37.945       62
   37.960       63
   37.975       65
   37.990       46
   38.005       50
   38.020       54
   38.035       50
   38.050       45
   38.065       39
   38.080       47
   38.095       46
   38.110       58
   38.125       56
   38.140       58
   38.155       59
   38.170       58
   38.185       52
   38.200       42
   38.215       38
   38.230       48
   38.245       42
   38.260       44
   38.275       54
   38.290       58
   38.305       54
   38.320       53
   38.335       42
   38.350       56
   38.365       51
   38.380       44
   38.395       46
   38.410       34
   38.425       45
   38.440       47
   38.455       54
   38.470       50
   38.485       54
   38.500       61
   38.515       56
   38.530       54
   38.545       41
   38.560       53
   38.575       50
   38.590       53
   38.605       61
   38.620       70
   38.635       84
   38.650       94
   38.665       79
   38.680       68
   38.695       68
   38.710       55
   38.725       57
   38.740       49
   38.755       55
   38.770       51
   38.785       50
   38.800       52
   38.815       45
   38.830       57
   38.845       55
   38.860       41
   38.875       53
   38.890       46
   38.905       51
   38.920       63
   38.935       56
   38.950       65
   38.965       62
   38.980       56
   38.995       58
   39.010       60
   39.025       68
   39.040       67
   39.055       47
   39.070       55
   39.085       55
   39.100       55
   39.115       55
   39.130       62
   39.145       65
   39.160       64
   39.175       79
   39.190       84
   39.205       77
   39.220       69
   39.235       64
   39.250       67
   39.265       49
   39.280       60
   39.295       70
   39.310       57
   39.325       45
   39.340       51
   39.355       46
   39.370       61
   39.385       53
   39.400       47
   39.415       46
   39.430       59
   39.445       55
   39.460       57
   39.475       49
   39.490       53
   39.505       38
   39.520       52
   39.535       57
   39.550       42
   39.565       47
   39.580       42
   39.595       47
   39.610       54
   39.625       45
   39.640       50
   39.655       49
   39.670       53
   39.685       42
   39.700       40
   39.715       42
   39.730       39
   39.745       50
   39.760       50
   39.775       37
   39.790       33
   39.805       35
   39.820       39
   39.835       45
   39.850       39
   39.865       42
   39.880       48
   39.895       43
   39.910       49
   39.925       44
   39.940       48
   39.955       48
   39.970       52
   39.985       47
   40.000       65
   40.015       57
   40.030       68
   40.045       56
   40.060       66
   40.075       58
   40.090       55
   40.105       61
   40.120       71
   40.135       79
   40.150       85
   40.165       71
   40.180       77
   40.195       78
   40.210       67
   40.225       63
   40.240       66
   40.255       58
   40.270       51
   40.285       56
   40.300       53
   40.315       44
   40.330       45
   40.345       51
   40.360       58
   40.375       48
   40.390       41
   40.405       45
   40.420       49
   40.435       54
   40.450       61
   40.465       41
   40.480       45
   40.495       46
   40.510       47
   40.525       55
   40.540       40
   40.555       42
   40.570       45
   40.585       54
   40.600       56
   40.615       57
   40.630       54
   40.645       53
   40.660       56
   40.675       62
   40.690       72
   40.705       72
   40.720       64
   40.735       65
   40.750       61
   40.765       57
   40.780       56
   40.795       57
   40.810       68
   40.825       69
   40.840       70
   40.855       60
   40.870       55
   40.885       49
   40.900       57
   40.915       55
   40.930       51
   40.945       52
   40.960       47
   40.975       54
   40.990       56
   41.005       48
   41.020       62
   41.035       80
   41.050       74
   41.065       69
   41.080       79
   41.095       67
   41.110       67
   41.125       68
   41.140       65
   41.155       69
   41.170       64
   41.185       50
   41.200       58
   41.215       53
   41.230       49
   41.245       50
   41.260       52
   41.275       45
   41.290       44
   41.305       35
   41.320       37
   41.335       32
   41.350       43
   41.365       42
   41.380       44
   41.395       43
   41.410       44
   41.425       42
   41.440       55
   41.455       49
   41.470       49
   41.485       47
   41.500       36
   41.515       44
   41.530       57
   41.545       46
   41.560       45
   41.575       46
   41.590       39
   41.605       38
   41.620       30
   41.635       36
   41.650       31
   41.665       35
   41.680       37
   41.695       33
   41.710       39
   41.725       44
   41.740       41
   41.755       47
   41.770       40
   41.785       52
   41.800       40
   41.815       37
   41.830       38
   41.845       38
   41.860       35
   41.875       44
   41.890       29
   41.905       45
   41.920       38
   41.935       43
   41.950       41
   41.965       33
   41.980       37
   41.995       42
   42.010       49
   42.025       54
   42.040       48
   42.055       54
   42.070       59
   42.085       50
   42.100       57
   42.115       56
   42.130       54
   42.145       54
   42.160       55
   42.175       53
   42.190       54
   42.205       50
   42.220       48
   42.235       42
   42.250       52
   42.265       42
   42.280       40
   42.295       46
   42.310       51
   42.325       47
   42.340       50
   42.355       54
   42.370       45
   42.385       48
   42.400       61
   42.415       52
   42.430       56
   42.445       52
   42.460       52
   42.475       53
   42.490       51
   42.505       54
   42.520       43
   42.535       38
   42.550       42
   42.565       40
   42.580       43
   42.595       53
   42.610       52
   42.625       52
   42.640       45
   42.655       51
   42.670       64
   42.685       55
   42.700       59
   42.715       67
   42.730       63
   42.745       61
   42.760       75
   42.775       60
   42.790       51
   42.805       55
   42.820       66
   42.835       48
   42.850       56
   42.865       51
   42.880       57
   42.895       48
   42.910       41
   42.925       49
   42.940       40
   42.955       34
   42.970       30
   42.985       28
   43.000       32
   43.015       37
   43.030       44
   43.045       52
   43.060       25
   43.075       35
   43.090       30
   43.105       45
   43.120       56
   43.135       52
   43.150       47
   43.165       45
   43.180       41
   43.195       33
   43.210       33
   43.225       39
   43.240       50
   43.255       41
   43.270       40
   43.285       38
   43.300       30
   43.315       36
   43.330       48
   43.345       35
   43.360       36
   43.375       42
   43.390       48
   43.405       38
   43.420       37
   43.435       40
   43.450       41
   43.465       54
   43.480       44
   43.495       44
   43.510       44
   43.525       43
   43.540       35
   43.555       51
   43.570       51
   43.585       57
   43.600       51
   43.615       42
   43.630       47
   43.645       53
   43.660       42
   43.675       35
   43.690       40
   43.705       41
   43.720       40
   43.735       37
   43.750       42
   43.765       46
   43.780       37
   43.795       40
   43.810       32
   43.825       28
   43.840       39
   43.855       41
   43.870       40
   43.885       37
   43.900       33
   43.915       28
   43.930       43
   43.945       33
   43.960       37
   43.975       35
   43.990       41
   44.005       43
   44.020       42
   44.035       42
   44.050       38
   44.065       35
   44.080       36
   44.095       35
   44.110       34
   44.125       40
   44.140       33
   44.155       28
   44.170       35
   44.185       36
   44.200       32
   44.215       32
   44.230       32
   44.245       41
   44.260       47
   44.275       45
   44.290       45
   44.305       43
   44.320       53
   44.335       52
   44.350       46
   44.365       46
   44.380       51
   44.395       53
   44.410       47
   44.425       63
   44.440       63
   44.455       62
   44.470       62
   44.485       53
   44.500       58
   44.515       72
   44.530       73
   44.545       63
   44.560       59
   44.575       59
   44.590       61
   44.605       59
   44.620       48
   44.635       41
   44.650       40
   44.665       42
   44.680       45
   44.695       50
   44.710       45
   44.725       41
   44.740       47
   44.755       42
   44.770       58
   44.785       59
   44.800       58
   44.815       43
   44.830       44
   44.845       38
   44.860       38
   44.875       51
   44.890       46
   44.905       57
   44.920       38
   44.935       43
   44.950       45
   44.965       46
   44.980       34
   44.995       40
   45.010       45
   45.025       48
   45.040       45
   45.055       50
   45.070       45
   45.085       53
   45.100       58
   45.115       70
   45.130       68
   45.145       79
   45.160       73
   45.175       54
   45.190       59
   45.205       59
   45.220       58
   45.235       58
   45.250       56
   45.265       56
   45.280       66
   45.295       55
   45.310       55
   45.325       46
   45.340       52
   45.355       66
   45.370       64
   45.385       58
   45.400       53
   45.415       53
   45.430       59
   45.445       66
   45.460       65
   45.475       59
   45.490       69
   45.505       68
   45.520       70
   45.535       55
   45.550       50
   45.565       62
   45.580       53
   45.595       52
   45.610       47
   45.625       46
   45.640       49
   45.655       53
   45.670       52
   45.685       39
   45.700       45
   45.715       44
   45.730       47
   45.745       51
   45.760       47
   45.775       49
   45.790       37
   45.805       47
   45.820       46
   45.835       41
   45.850       46
   45.865       51
   45.880       48
   45.895       46
   45.910       61
   45.925       44
   45.940       57
   45.955       46
   45.970       46
   45.985       34
