    4.000       49
    4.015       55
    4.030       42
    4.045       44
    4.060       41
    4.075       48
    4.090       41
    4.105       39
    4.120       51
    4.135       52
    4.150       45
    4.165       44
    4.180       47
    4.195       44
    4.210       46
    4.225       39
    4.240       50
    4.255       47
    4.270       41
    4.285       47
    4.300       45
    4.315       48
    4.330       50
    4.345       40
    4.360       44
    4.375       46
    4.390       64
    4.405       39
    4.420       50
    4.435       55
    4.450       45
    4.465       42
    4.480       38
    4.495       44
    4.510       48
    4.525       35
    4.540       41
    4.555       34
    4.570       45
    4.585       42
    4.600       55
    4.615       51
    4.630       37
    4.645       36
    4.660       41
    4.675       36
    4.690       41
    4.705       49
    4.720       50
    4.735       51
    4.750       45
    4.765       42
    4.780       45
    4.795       49
    4.810       47
    4.825       42
    4.840       41
    4.855       33
    4.870       31
    4.885       51
    4.900       43
    4.915       38
    4.930       42
    4.945       55
    4.960       43
    4.975       42
    4.990       46
    5.005       38
    5.020       45
    5.035       46
    5.050       38
    5.065       41
    5.080       41
    5.095       48
    5.110       50
    5.125       54
    5.140       46
    5.155       42
    5.170       39
    5.185       44
    5.200       46
    5.215       36
    5.230       42
    5.245       42
    5.260       41
    5.275       43
    5.290       43
    5.305       33
    5.320       31
    5.335       42
    5.350       49
    5.365       43
    5.380       42
    5.395       46
    5.410       47
    5.425       48
    5.440       55
    5.455       51
    5.470       46
    5.485       45
    5.500       48
    5.515       40
    5.530       41
    5.545       37
    5.560       51
    5.575       46
    5.590       38
    5.605       53
    5.620       35
    5.635       58
    5.650       51
    5.665       46
    5.680       44
    5.695       45
    5.710       44
    5.725       42
    5.740       34
    5.755       53
    5.770       42
    5.785       45
    5.800       48
    5.815       45
    5.830       48
    5.845       34
    5.860       42
    5.875       40
    5.890       45
    5.905       47
    5.920       52
    5.935       46
    5.950       42
    5.965       42
    5.980       48
    5.995       43
    6.010       45
    6.025       42
    6.040       42
    6.055       46
    6.070       46
    6.085       39
    6.100       42
    6.115       47
    6.130       42
    6.145       42
    6.160       47
    6.175       48
    6.190       52
    6.205       42
    6.220       48
    6.235       44
    6.250       50
    6.265       52
    6.280       55
    6.295       47
    6.310       61
    6.325       55
    6.340       66
    6.355       81
    6.370       83
    6.385       86
    6.400       95
    6.415       79
    6.430       96
    6.445      107
    6.460      111
    6.475      123
    6.490      148
    6.505      145
    6.520      168
    6.535      181
    6.550      191
    6.565      212
    6.580      208
    6.595      258
    6.610      346
    6.625      371
    6.640      327
    6.655      308
    6.670      301
    6.685      310
    6.700      222
    6.715      113
    6.730       72
    6.745       51
    6.760       48
    6.775       51
    6.790       38
    6.805       42
    6.820       43
    6.835       40
    6.850       34
    6.865       38
    6.880       40
    6.895       52
    6.910       38
    6.925       46
    6.940       55
    6.955       46
    6.970       57
    6.985       55
    7.000       39
    7.015       40
    7.030       62
    7.045       56
    7.060       47
    7.075       48
    7.090       46
    7.105       55
    7.120       63
    7.135       63
    7.150       75
    7.165       80
    7.180      100
    7.195      105
    7.210       89
    7.225       86
    7.240       69
    7.255       44
    7.270       40
    7.285       41
    7.300       42
    7.315       45
    7.330       43
    7.345       42
    7.360       51
    7.375       42
    7.390       43
    7.405       41
    7.420       46
    7.435       44
    7.450       38
    7.465       29
    7.480       40
    7.495       39
    7.510       41
    7.525       43
    7.540       35
    7.555       43
    7.570       38
    7.585       47
    7.600       44
    7.615       49
    7.630       33
    7.645       33
    7.660       36
    7.675       43
    7.690       49
    7.705       44
    7.720       39
    7.735       36
    7.750       42
    7.765       39
    7.780       38
    7.795       30
    7.810       39
    7.825       52
    7.840       42
    7.855       48
    7.870       41
    7.885       37
    7.900       37
    7.915       40
    7.930       39
    7.945       38
    7.960       46
    7.975       48
    7.990       45
    8.005       45
    8.020       29
    8.035       30
    8.050       30
    8.065       37
    8.080       34
    8.095       33
    8.110       38
    8.125       40
    8.140       31
    8.155       32
    8.170       38
    8.185       35
    8.200       40
    8.215       35
    8.230       37
    8.245       43
    8.260       44
    8.275       41
    8.290       40
    8.305       40
    8.320       40
    8.335       37
    8.350       37
    8.365       39
    8.380       51
    8.395       54
    8.410       54
    8.425       41
    8.440       42
    8.455       49
    8.470       47
    8.485       44
    8.500       40
    8.515       40
    8.530       50
    8.545       54
    8.560       46
    8.575       50
    8.590       47
    8.605       51
    8.620       49
    8.635       47
    8.650       29
    8.665       41
    8.680       37
    8.695       39
    8.710       33
    8.725       37
    8.740       42
    8.755       40
    8.770       28
    8.785       39
    8.800       53
    8.815       39
    8.830       47
    8.845       47
    8.860       51
    8.875       50
    8.890       42
    8.905       31
    8.920       34
    8.935       36
    8.950       54
    8.965       41
    8.980       39
    8.995       51
    9.010       47
    9.025       39
    9.040       38
    9.055       42
    9.070       53
    9.085       42
    9.100       41
    9.115       47
    9.130       42
    9.145       39
    9.160       48
    9.175       41
    9.190       51
    9.205       44
    9.220       42
    9.235       47
    9.250       36
    9.265       52
    9.280       53
    9.295       55
    9.310       45
    9.325       38
    9.340       40
    9.355       42
    9.370       44
    9.385       39
    9.400       45
    9.415       55
    9.430       52
    9.445       42
    9.460       51
    9.475       47
    9.490       46
    9.505       46
    9.520       42
    9.535       47
    9.550       43
    9.565       49
    9.580       44
    9.595       39
    9.610       36
    9.625       50
    9.640       45
    9.655       49
    9.670       40
    9.685       42
    9.700       42
    9.715       46
    9.730       55
    9.745       38
    9.760       52
    9.775       53
    9.790       52
    9.805       41
    9.820       54
    9.835       40
    9.850       49
    9.865       52
    9.880       45
    9.895       48
    9.910       44
    9.925       41
    9.940       48
    9.955       49
    9.970       44
    9.985       53
   10.000       44
   10.015       44
   10.030       36
   10.045       41
   10.060       46
   10.075       47
   10.090       40
   10.105       40
   10.120       44
   10.135       52
   10.150       45
   10.165       42
   10.180       54
   10.195       49
   10.210       37
   10.225       45
   10.240       41
   10.255       45
   10.270       54
   10.285       62
   10.300       48
   10.315       48
   10.330       45
   10.345       65
   10.360       45
   10.375       57
   10.390       56
   10.405       49
   10.420       53
   10.435       64
   10.450       55
   10.465       68
   10.480       83
   10.495       79
   10.510       78
   10.525       79
   10.540       57
   10.555       45
   10.570       50
   10.585       49
   10.600       48
   10.615       49
   10.630       58
   10.645       58
   10.660       53
   10.675       66
   10.690       65
   10.705       61
   10.720       73
   10.735       82
   10.750       96
   10.765       92
   10.780      107
   10.795      121
   10.810      138
   10.825      124
   10.840      148
   10.855      171
   10.870      214
   10.885      263
   10.900      252
   10.915      191
   10.930      112
   10.945       65
   10.960       48
   10.975       52
   10.990       47
   11.005       50
   11.020       57
   11.035       51
   11.050       59
   11.065       64
   11.080       53
   11.095       44
   11.110       42
   11.125       56
   11.140       54
   11.155       53
   11.170       48
   11.185       53
   11.200       51
   11.215       58
   11.230       62
   11.245       60
   11.260       71
   11.275       67
   11.290       70
   11.305       61
   11.320       49
   11.335       50
   11.350       45
   11.365       43
   11.380       53
   11.395       51
   11.410       55
   11.425       56
   11.440       55
   11.455       56
   11.470       50
   11.485       56
   11.500       71
   11.515       53
   11.530       38
   11.545       41
   11.560       45
   11.575       50
   11.590       51
   11.605       48
   11.620       43
   11.635       38
   11.650       48
   11.665       43
   11.680       49
   11.695       46
   11.710       67
   11.725       57
   11.740       55
   11.755       62
   11.770       67
   11.785       79
   11.800       72
   11.815       63
   11.830       87
   11.845       84
   11.860       64
   11.875       72
   11.890       63
   11.905       69
   11.920       77
   11.935       70
   11.950       60
   11.965       54
   11.980       67
   11.995       59
   12.010       59
   12.025       65
   12.040       61
   12.055       54
   12.070       59
   12.085       50
   12.100       61
   12.115       54
   12.130       57
   12.145       47
   12.160       39
   12.175       44
   12.190       42
   12.205       38
   12.220       46
   12.235       48
   12.250       55
   12.265       38
   12.280       46
   12.295       48
   12.310       41
   12.325       49
   12.340       45
   12.355       54
   12.370       36
   12.385       44
   12.400       47
   12.415       47
   12.430       51
   12.445       45
   12.460       51
   12.475       51
   12.490       48
   12.505       48
   12.520       58
   12.535       66
   12.550       69
   12.565       71
   12.580       81
   12.595       98
   12.610      111
   12.625       97
   12.640      118
   12.655      137
   12.670      154
   12.685      224
   12.700      235
   12.715      277
   12.730      261
   12.745      213
   12.760      176
   12.775      173
   12.790      174
   12.805      171
   12.820      140
   12.835      104
   12.850       89
   12.865       70
   12.880       55
   12.895       59
   12.910       61
   12.925       59
   12.940       69
   12.955       83
   12.970       73
   12.985       90
   13.000      101
   13.015      106
   13.030      109
   13.045      128
   13.060      161
   13.075      203
   13.090      247
   13.105      210
   13.120      171
   13.135      151
   13.150      138
   13.165      153
   13.180      193
   13.195      203
   13.210      246
   13.225      295
   13.240      339
   13.255      409
   13.270      502
   13.285      547
   13.300      519
   13.315      470
   13.330      430
   13.345      472
   13.360      598
   13.375      827
   13.390      987
   13.405      864
   13.420      609
   13.435      353
   13.450      211
   13.465      142
   13.480       97
   13.495      104
   13.510      109
   13.525      122
   13.540      137
   13.555      134
   13.570      160
   13.585      170
   13.600      194
   13.615      285
   13.630      279
   13.645      282
   13.660      315
   13.675      263
   13.690      191
   13.705      134
   13.720       98
   13.735       69
   13.750       58
   13.765       49
   13.780       54
   13.795       56
   13.810       70
   13.825       67
   13.840       75
   13.855       71
   13.870       80
   13.885       83
   13.900      100
   13.915       89
   13.930       78
   13.945       59
   13.960       52
   13.975       44
   13.990       44
   14.005       50
   14.020       45
   14.035       42
   14.050       49
   14.065       61
   14.080       52
   14.095       54
   14.110       50
   14.125       50
   14.140       48
   14.155       55
   14.170       61
   14.185       65
   14.200       71
   14.215       67
   14.230       81
   14.245       91
   14.260       91
   14.275       92
   14.290      126
   14.305      144
   14.320      151
   14.335      189
   14.350      208
   14.365      217
   14.380      195
   14.395      167
   14.410      144
   14.425      132
   14.440      147
   14.455      152
   14.470      164
   14.485      151
   14.500      139
   14.515      152
   14.530      156
   14.545      194
   14.560      234
   14.575      287
   14.590      260
   14.605      237
   14.620      179
   14.635      112
   14.650       73
   14.665       55
   14.680       59
   14.695       56
   14.710       58
   14.725       58
   14.740       59
   14.755       63
   14.770       52
   14.785       66
   14.800       53
   14.815       48
   14.830       45
   14.845       57
   14.860       46
   14.875       53
   14.890       66
   14.905       56
   14.920       68
   14.935       72
   14.950       70
   14.965       73
   14.980       90
   14.995      108
   15.010      129
   15.025      138
   15.040      178
   15.055      198
   15.070      251
   15.085      318
   15.100      360
   15.115      383
   15.130      474
   15.145      576
   15.160      693
   15.175      769
   15.190      632
   15.205      431
   15.220      258
   15.235      170
   15.250      149
   15.265      139
   15.280      138
   15.295      171
   15.310      157
   15.325      130
   15.340      152
   15.355      165
   15.370      189
   15.385      206
   15.400      208
   15.415      207
   15.430      173
   15.445      172
   15.460      166
   15.475      142
   15.490      104
   15.505      109
   15.520      118
   15.535      120
   15.550      126
   15.565      132
   15.580      158
   15.595      197
   15.610      222
   15.625      262
   15.640      300
   15.655      336
   15.670      367
   15.685      340
   15.700      267
   15.715      199
   15.730      139
   15.745      153
   15.760      169
   15.775      187
   15.790      190
   15.805      177
   15.820      163
   15.835      183
   15.850      221
   15.865      253
   15.880      207
   15.895      150
   15.910      129
   15.925       95
   15.940       71
   15.955       62
   15.970       65
   15.985       57
   16.000       51
   16.015       59
   16.030       81
   16.045       64
   16.060       73
   16.075       89
   16.090      108
   16.105      116
   16.120      108
   16.135      138
   16.150      172
   16.165      209
   16.180      222
   16.195      244
   16.210      224
   16.225      244
   16.240      274
   16.255      229
   16.270      167
   16.285      122
   16.300      117
   16.315      100
   16.330       97
   16.345       96
   16.360      106
   16.375      126
   16.390      140
   16.405      152
   16.420      170
   16.435      163
   16.450      181
   16.465      227
   16.480      262
   16.495      386
   16.510      472
   16.525      500
   16.540      409
   16.555      333
   16.570      291
   16.585      256
   16.600      291
   16.615      303
   16.630      327
   16.645      296
   16.660      297
   16.675      268
   16.690      235
   16.705      248
   16.720      229
   16.735      212
   16.750      206
   16.765      240
   16.780      295
   16.795      272
   16.810      273
   16.825      262
   16.840      276
   16.855      297
   16.870      262
   16.885      249
   16.900      243
   16.915      187
   16.930      127
   16.945      105
   16.960       80
   16.975       87
   16.990       91
   17.005       88
   17.020      106
   17.035      115
   17.050      141
   17.065      168
   17.080      209
   17.095      236
   17.110      254
   17.125      272
   17.140      221
   17.155      183
   17.170      136
   17.185      133
   17.200      152
   17.215      177
   17.230      227
   17.245      266
   17.260      316
   17.275      362
   17.290      403
   17.305      416
   17.320      364
   17.335      311
   17.350      217
   17.365      175
   17.380      147
   17.395      128
   17.410      130
   17.425      123
   17.440      112
   17.455       96
   17.470      102
   17.485      122
   17.500      111
   17.515      126
   17.530      146
   17.545      160
   17.560      201
   17.575      217
   17.590      223
   17.605      164
   17.620      136
   17.635       92
   17.650       77
   17.665       75
   17.680       79
   17.695       92
   17.710       94
   17.725       93
   17.740       96
   17.755      108
   17.770      115
   17.785       96
   17.800       97
   17.815      108
   17.830      112
   17.845      104
   17.860      120
   17.875      100
   17.890       88
   17.905       90
   17.920       81
   17.935       80
   17.950       77
   17.965       74
   17.980       67
   17.995       70
   18.010       67
   18.025       62
   18.040       53
   18.055       62
   18.070       57
   18.085       54
   18.100       65
   18.115       62
   18.130       56
   18.145       57
   18.160       55
   18.175       59
   18.190       56
   18.205       65
   18.220       62
   18.235       69
   18.250       86
   18.265       87
   18.280      107
   18.295      122
   18.310      142
   18.325      140
   18.340      165
   18.355      184
   18.370      201
   18.385      242
   18.400      221
   18.415      202
   18.430      165
   18.445      113
   18.460       83
   18.475       85
   18.490       76
   18.505       61
   18.520       57
   18.535       66
   18.550       60
   18.565       59
   18.580       71
   18.595       79
   18.610       99
   18.625       94
   18.640      108
   18.655      145
   18.670      133
   18.685      128
   18.700      111
   18.715      126
   18.730      132
   18.745      134
   18.760      149
   18.775      135
   18.790      138
   18.805      118
   18.820       93
   18.835       95
   18.850       74
   18.865       63
   18.880       63
   18.895       65
   18.910       71
   18.925       77
   18.940       78
   18.955       72
   18.970       95
   18.985       85
   19.000       93
   19.015       65
   19.030       84
   19.045       78
   19.060       91
   19.075       93
   19.090      104
   19.105       81
   19.120       74
   19.135       78
   19.150       59
   19.165       52
   19.180       54
   19.195       57
   19.210       59
   19.225       61
   19.240       60
   19.255       45
   19.270       62
   19.285       48
   19.300       59
   19.315       59
   19.330       59
   19.345       61
   19.360       58
   19.375       55
   19.390       48
   19.405       57
   19.420       63
   19.435       55
   19.450       57
   19.465       59
   19.480       64
   19.495       70
   19.510       71
   19.525       77
   19.540       81
   19.555       83
   19.570      106
   19.585       99
   19.600      104
   19.615      106
   19.630       90
   19.645      112
   19.660      127
   19.675      133
   19.690      121
   19.705      142
   19.720      137
   19.735      149
   19.750      132
   19.765      126
   19.780      108
   19.795       93
   19.810       92
   19.825       84
   19.840       86
   19.855       95
   19.870      128
   19.885      121
   19.900      141
   19.915      179
   19.930      223
   19.945      267
   19.960      324
   19.975      417
   19.990      495
   20.005      466
   20.020      386
   20.035      312
   20.050      263
   20.065      242
   20.080      254
   20.095      277
   20.110      292
   20.125      261
   20.140      222
   20.155      218
   20.170      184
   20.185      128
   20.200      108
   20.215       85
   20.230       75
   20.245       76
   20.260       80
   20.275       82
   20.290       88
   20.305       84
   20.320       90
   20.335       81
   20.350       77
   20.365       72
   20.380       64
   20.395       63
   20.410       56
   20.425       61
   20.440       60
   20.455       62
   20.470       67
   20.485       70
   20.500       69
   20.515       67
   20.530       56
   20.545       52
   20.560       52
   20.575       63
   20.590       51
   20.605       58
   20.620       70
   20.635       81
   20.650       66
   20.665       69
   20.680       77
   20.695       73
   20.710       75
   20.725       64
   20.740       70
   20.755       87
   20.770       96
   20.785      100
   20.800      101
   20.815       84
   20.830       96
   20.845      128
   20.860      133
   20.875      144
   20.890      133
   20.905      138
   20.920      129
   20.935      126
   20.950      155
   20.965      184
   20.980      157
   20.995      130
   21.010      107
   21.025       78
   21.040       71
   21.055       53
   21.070       55
   21.085       58
   21.100       63
   21.115       54
   21.130       52
   21.145       54
   21.160       53
   21.175       54
   21.190       48
   21.205       55
   21.220       60
   21.235       55
   21.250       54
   21.265       60
   21.280       78
   21.295       68
   21.310       75
   21.325       89
   21.340       81
   21.355       88
   21.370       85
   21.385       69
   21.400       62
   21.415       58
   21.430       60
   21.445       76
   21.460       80
   21.475       74
   21.490       54
   21.505       55
   21.520       48
   21.535       43
   21.550       48
   21.565       56
   21.580       66
   21.595       50
   21.610       62
   21.625       71
   21.640      109
   21.655      110
   21.670      117
   21.685      143
   21.700      171
   21.715      173
   21.730      153
   21.745      139
   21.760      131
   21.775      120
   21.790      110
   21.805      140
   21.820      186
   21.835      223
   21.850      264
   21.865      361
   21.880      413
   21.895      475
   21.910      349
   21.925      268
   21.940      191
   21.955      136
   21.970      111
   21.985      112
   22.000       93
   22.015       86
   22.030       89
   22.045       89
   22.060       75
   22.075       67
   22.090       64
   22.105       54
   22.120       55
   22.135       58
   22.150       46
   22.165       48
   22.180       56
   22.195       51
   22.210       52
   22.225       62
   22.240       75
   22.255       59
   22.270       55
   22.285       53
   22.300       54
   22.315       54
   22.330       60
   22.345       62
   22.360       60
   22.375       70
   22.390       67
   22.405       86
   22.420       88
   22.435       84
   22.450       66
   22.465       72
   22.480       81
   22.495      102
   22.510       81
   22.525       81
   22.540       65
   22.555       68
   22.570       53
   22.585       57
   22.600       62
   22.615       76
   22.630       69
   22.645       88
   22.660       88
   22.675       95
   22.690      107
   22.705       93
   22.720      122
   22.735      125
   22.750      139
   22.765      107
   22.780       87
   22.795       76
   22.810       86
   22.825       97
   22.840       98
   22.855      103
   22.870      105
   22.885      131
   22.900      136
   22.915      152
   22.930      145
   22.945      144
   22.960      125
   22.975      117
   22.990      117
   23.005       90
   23.020       84
   23.035       68
   23.050       67
   23.065       51
   23.080       49
   23.095       48
   23.110       54
   23.125       61
   23.140       77
   23.155       77
   23.170       81
   23.185       84
   23.200       78
   23.215       79
   23.230       77
   23.245       78
   23.260       86
   23.275       90
   23.290      103
   23.305      121
   23.320       89
   23.335       81
   23.350       74
   23.365       68
   23.380       58
   23.395       43
   23.410       49
   23.425       54
   23.440       53
   23.455       61
   23.470       60
   23.485       63
   23.500       72
   23.515       60
   23.530       65
   23.545       63
   23.560       46
   23.575       48
   23.590       42
   23.605       52
   23.620       59
   23.635       54
   23.650       44
   23.665       45
   23.680       42
   23.695       45
   23.710       65
   23.725       66
   23.740       57
   23.755       56
   23.770       76
   23.785       60
   23.800       69
   23.815       70
   23.830       67
   23.845       75
   23.860       59
   23.875       51
   23.890       55
   23.905       56
   23.920       55
   23.935       64
   23.950       54
   23.965       60
   23.980       61
   23.995       70
   24.010       70
   24.025       75
   24.040       75
   24.055       81
   24.070       88
   24.085       92
   24.100       83
   24.115       70
   24.130       58
   24.145       71
   24.160       62
   24.175       71
   24.190       56
   24.205       58
   24.220       61
   24.235       56
   24.250       62
   24.265       62
   24.280       56
   24.295       58
   24.310       74
   24.325       70
   24.340       72
   24.355       70
   24.370       72
   24.385       63
   24.400       52
   24.415       45
   24.430       46
   24.445       47
   24.460       53
   24.475       52
   24.490       47
   24.505       65
   24.520       52
   24.535       53
   24.550       51
   24.565       48
   24.580       60
   24.595       45
   24.610       54
   24.625       62
   24.640       60
   24.655       58
   24.670       79
   24.685       83
   24.700       82
   24.715      100
   24.730      102
   24.745       89
   24.760       89
   24.775       68
   24.790       70
   24.805       66
   24.820       66
   24.835       79
   24.850       82
   24.865       77
   24.880       67
   24.895       67
   24.910       62
   24.925       54
   24.940       55
   24.955       52
   24.970       61
   24.985       58
   25.000       64
   25.015       66
   25.030       68
   25.045       81
   25.060      117
   25.075      104
   25.090      101
   25.105      106
   25.120       85
   25.135       68
   25.150       60
   25.165       58
   25.180       56
   25.195       55
   25.210       51
   25.225       61
   25.240       69
   25.255       64
   25.270       75
   25.285       75
   25.300       80
   25.315       74
   25.330       77
   25.345       62
   25.360       62
   25.375       66
   25.390       73
   25.405       58
   25.420       70
   25.435       68
   25.450       87
   25.465       94
   25.480       84
   25.495       95
   25.510       99
   25.525       89
   25.540       94
   25.555       78
   25.570       63
   25.585       58
   25.600       48
   25.615       64
   25.630       73
   25.645       60
   25.660       59
   25.675       84
   25.690       90
   25.705       96
   25.720      113
   25.735      107
   25.750      127
   25.765      138
   25.780      141
   25.795      131
   25.810      119
   25.825      100
   25.840       87
   25.855       82
   25.870       75
   25.885       72
   25.900       74
   25.915       75
   25.930       95
   25.945      118
   25.960      108
   25.975      118
   25.990      128
   26.005      128
   26.020      117
   26.035       98
   26.050       82
   26.065       69
   26.080       78
   26.095       83
   26.110       81
   26.125       73
   26.140       67
   26.155       62
   26.170       65
   26.185       65
   26.200       75
   26.215       72
   26.230       72
   26.245       80
   26.260       94
   26.275      116
   26.290      110
   26.305       87
   26.320       88
   26.335       82
   26.350       67
   26.365       68
   26.380       56
   26.395       53
   26.410       61
   26.425       69
   26.440       72
   26.455       73
   26.470       75
   26.485       72
   26.500       73
   26.515       58
   26.530       51
   26.545       54
   26.560       60
   26.575       62
   26.590       59
   26.605       67
   26.620       53
   26.635       53
   26.650       57
   26.665       62
   26.680       65
   26.695       63
   26.710       74
   26.725       71
   26.740       82
   26.755       92
   26.770       94
   26.785       84
   26.800       77
   26.815       67
   26.830       65
   26.845       61
   26.860       68
   26.875       67
   26.890       65
   26.905       66
   26.920       71
   26.935       78
   26.950       82
   26.965       98
   26.980      121
   26.995      158
   27.010      126
   27.025      120
   27.040      123
   27.055      132
   27.070      117
   27.085      125
   27.100      108
   27.115      101
   27.130       79
   27.145       77
   27.160       64
   27.175       59
   27.190       75
   27.205       76
   27.220       69
   27.235       77
   27.250       66
   27.265       68
   27.280       60
   27.295       69
   27.310       67
   27.325       98
   27.340       80
   27.355       73
   27.370       80
   27.385       69
   27.400       62
   27.415       52
   27.430       61
   27.445       78
   27.460       76
   27.475       73
   27.490       74
   27.505       85
   27.520       99
   27.535       91
   27.550       85
   27.565       77
   27.580       82
   27.595      105
   27.610      117
   27.625      106
   27.640      112
   27.655      127
   27.670      121
   27.685      154
   27.700      183
   27.715      191
   27.730      197
   27.745      148
   27.760      145
   27.775      128
   27.790      108
   27.805       88
   27.820       90
   27.835       75
   27.850       77
   27.865       83
   27.880       75
   27.895       82
   27.910       97
   27.925       97
   27.940      112
   27.955      109
   27.970       96
   27.985      111
   28.000      117
   28.015       94
   28.030       90
   28.045       95
   28.060       85
   28.075       64
   28.090       57
   28.105       79
   28.120       81
   28.135       81
   28.150       80
   28.165       64
   28.180       64
   28.195       65
   28.210       75
   28.225       81
   28.240       82
   28.255       66
   28.270       61
   28.285       61
   28.300       78
   28.315       66
   28.330       70
   28.345       68
   28.360       89
   28.375      100
   28.390       87
   28.405       86
   28.420       89
   28.435       89
   28.450       89
   28.465       95
   28.480      106
   28.495      108
   28.510       99
   28.525       94
   28.540       88
   28.555       76
   28.570       67
   28.585       62
   28.600       48
   28.615       56
   28.630       62
   28.645       63
   28.660       50
   28.675       53
   28.690       45
   28.705       49
   28.720       57
   28.735       65
   28.750       74
   28.765       70
   28.780       68
   28.795       70
   28.810       82
   28.825       78
   28.840       76
   28.855       62
   28.870       48
   28.885       66
   28.900       75
   28.915       73
   28.930       85
   28.945       85
   28.960       84
   28.975       90
   28.990       97
   29.005       89
   29.020       87
   29.035       83
   29.050       82
   29.065       86
   29.080       83
   29.095       81
   29.110       88
   29.125       91
   29.140       96
   29.155      102
   29.170      117
   29.185      105
   29.200       99
   29.215       84
   29.230       74
   29.245       79
   29.260       83
   29.275       84
   29.290       67
   29.305       66
   29.320       74
   29.335       84
   29.350       75
   29.365       71
   29.380       83
   29.395       80
   29.410       65
   29.425       68
   29.440       64
   29.455       61
   29.470       60
   29.485       56
   29.500       63
   29.515       69
   29.530       57
   29.545       60
   29.560       56
   29.575       76
   29.590       71
   29.605       80
   29.620       79
   29.635       74
   29.650       86
   29.665       94
   29.680       91
   29.695       96
   29.710       99
   29.725       89
   29.740      115
   29.755       99
   29.770      117
   29.785      109
   29.800      113
   29.815      102
   29.830       88
   29.845       88
   29.860       81
   29.875       79
   29.890       89
   29.905       78
   29.920       74
   29.935       75
   29.950       65
   29.965       64
   29.980       81
   29.995       58
   30.010       47
   30.025       49
   30.040       55
   30.055       58
   30.070       52
   30.085       49
   30.100       58
   30.115       53
   30.130       56
   30.145       53
   30.160       60
   30.175       49
   30.190       56
   30.205       59
   30.220       54
   30.235       46
   30.250       57
   30.265       57
   30.280       57
   30.295       65
   30.310       65
   30.325       65
   30.340       78
   30.355       79
   30.370       68
   30.385       53
   30.400       57
   30.415       60
   30.430       75
   30.445       60
   30.460       64
   30.475       54
   30.490       61
   30.505       65
   30.520       69
   30.535       67
   30.550       68
   30.565       76
   30.580       77
   30.595       74
   30.610       70
   30.625       78
   30.640       86
   30.655       88
   30.670       74
   30.685       91
   30.700      102
   30.715      102
   30.730       95
   30.745       69
   30.760       74
   30.775       93
   30.790       91
   30.805       68
   30.820       79
   30.835       76
   30.850       70
   30.865       64
   30.880       64
   30.895       66
   30.910       59
   30.925       65
   30.940       64
   30.955       71
   30.970       58
   30.985       73
   31.000       61
   31.015       81
   31.030       84
   31.045       65
   31.060       74
   31.075       70
   31.090       73
   31.105       80
   31.120       97
   31.135       89
   31.150       89
   31.165       88
   31.180       89
   31.195       76
   31.210       53
   31.225       70
   31.240       69
   31.255       72
   31.270       77
   31.285       68
   31.300       76
   31.315       73
   31.330       70
   31.345       72
   31.360       75
   31.375       68
   31.390       66
   31.405       75
   31.420       71
   31.435       67
   31.450       80
   31.465       81
   31.480       73
   31.495       67
   31.510       68
   31.525       83
   31.540       77
   31.555       63
   31.570       60
   31.585       61
   31.600       77
   31.615       79
   31.630       72
   31.645       70
   31.660       77
   31.675       77
   31.690       82
   31.705       75
   31.720       98
   31.735       92
   31.750       78
   31.765       69
   31.780       76
   31.795       79
   31.810       85
   31.825       91
   31.840      107
   31.855      114
   31.870      105
   31.885       94
   31.900       83
   31.915       88
   31.930       90
   31.945       82
   31.960       77
   31.975       88
   31.990       85
   32.005       89
   32.020       77
   32.035       74
   32.050       88
   32.065       89
   32.080       85
   32.095       72
   32.110       78
   32.125       78
   32.140       78
   32.155       62
   32.170       66
   32.185       76
   32.200       77
   32.215       81
   32.230       85
   32.245       71
   32.260       74
   32.275       74
   32.290       87
   32.305       85
   32.320       69
   32.335       62
   32.350       63
   32.365       71
   32.380       73
   32.395       80
   32.410       68
   32.425       59
   32.440       61
   32.455       63
   32.470       83
   32.485       73
   32.500       55
   32.515       58
   32.530       75
   32.545       64
   32.560       70
   32.575       59
   32.590       52
   32.605       56
   32.620       62
   32.635       58
   32.650       61
   32.665       66
   32.680       64
   32.695       59
   32.710       65
   32.725       58
   32.740       62
   32.755       54
   32.770       59
   32.785       59
   32.800       55
   32.815       68
   32.830       56
   32.845       37
   32.860       60
   32.875       47
   32.890       55
   32.905       52
   32.920       59
   32.935       58
   32.950       73
   32.965       66
   32.980       66
   32.995       68
   33.010       79
   33.025       74
   33.040       77
   33.055       95
   33.070       73
   33.085       69
   33.100       76
   33.115       79
   33.130       87
   33.145       78
   33.160       63
   33.175       79
   33.190       69
   33.205       69
   33.220       51
   33.235       64
   33.250       59
   33.265       59
   33.280       69
   33.295       46
   33.310       62
   33.325       59
   33.340       59
   33.355       58
   33.370       62
   33.385       62
   33.400       69
   33.415       61
   33.430       59
   33.445       60
   33.460       61
   33.475       64
   33.490       63
   33.505       65
   33.520       72
   33.535       67
   33.550       71
   33.565       78
   33.580       87
   33.595       77
   33.610      109
   33.625      100
   33.640      110
   33.655      116
   33.670      110
   33.685       95
   33.700       84
   33.715       76
   33.730       80
   33.745       81
   33.760       76
   33.775       79
   33.790       71
   33.805       55
   33.820       65
   33.835       65
   33.850       66
   33.865       68
   33.880       69
   33.895       76
   33.910       88
   33.925       84
   33.940       82
   33.955       95
   33.970       89
   33.985       80
   34.000       76
   34.015       73
   34.030       75
   34.045       76
   34.060       66
   34.075       59
   34.090       79
   34.105       70
   34.120       73
   34.135       76
   34.150       66
   34.165       63
   34.180       71
   34.195       75
   34.210       80
   34.225       78
   34.240       73
   34.255       68
   34.270       61
   34.285       51
   34.300       55
   34.315       62
   34.330       60
   34.345       49
   34.360       45
   34.375       49
   34.390       54
   34.405       46
   34.420       49
   34.435       52
   34.450       53
   34.465       39
   34.480       56
   34.495       64
   34.510       56
   34.525       50
   34.540       53
   34.555       66
   34.570       67
   34.585       73
   34.600       62
   34.615       67
   34.630       62
   34.645       60
   34.660       69
   34.675       67
   34.690       64
   34.705       47
   34.720       62
   34.735       59
   34.750       59
   34.765       43
   34.780       58
   34.795       53
   34.810       56
   34.825       50
   34.840       53
   34.855       71
   34.870       64
   34.885       68
   34.900       64
   34.915       67
   34.930       69
   34.945       60
   34.960       55
   34.975       57
   34.990       46
   35.005       45
   35.020       57
   35.035       56
   35.050       56
   35.065       57
   35.080       61
   35.095       55
   35.110       60
   35.125       63
   35.140       58
   35.155       54
   35.170       60
   35.185       66
   35.200       65
   35.215       61
   35.230       63
   35.245       64
   35.260       58
   35.275       57
   35.290       51
   35.305       68
   35.320       79
   35.335       58
   35.350       64
   35.365       57
   35.380       58
   35.395       56
   35.410       63
   35.425       61
   35.440       73
   35.455       63
   35.470       71
   35.485       64
   35.500       66
   35.515       63
   35.530       60
   35.545       69
   35.560       79
   35.575       72
   35.590       74
   35.605       85
   35.620       80
   35.635       77
   35.650       76
   35.665       77
   35.680       90
   35.695       84
   35.710       74
   35.725       87
   35.740       97
   35.755       84
   35.770       80
   35.785       69
   35.800       82
   35.815       73
   35.830       66
   35.845       63
   35.860       61
   35.875       52
   35.890       71
   35.905       63
   35.920       70
   35.935       55
   35.950       51
   35.965       63
   35.980       57
   35.995       58
   36.010       56
   36.025       52
   36.040       57
   36.055       53
   36.070       48
   36.085       48
   36.100       57
   36.115       53
   36.130       54
   36.145       48
   36.160       52
   36.175       48
   36.190       49
   36.205       48
   36.220       48
   36.235       49
   36.250       62
   36.265       59
   36.280       73
   36.295       50
   36.310       67
   36.325       64
   36.340       49
   36.355       55
   36.370       59
   36.385       59
   36.400       61
   36.415       65
   36.430       62
   36.445       60
   36.460       65
   36.475       66
   36.490       66
   36.505       54
   36.520       66
   36.535       44
   36.550       55
   36.565       49
   36.580       49
   36.595       59
   36.610       58
   36.625       59
   36.640       62
   36.655       64
   36.670       58
   36.685       68
   36.700       61
   36.715       51
   36.730       49
   36.745       51
   36.760       50
   36.775       58
   36.790       54
   36.805       50
   36.820       52
   36.835       48
   36.850       58
   36.865       48
   36.880       57
   36.895       59
   36.910       54
   36.925       70
   36.940       67
   36.955       59
   36.970       53
   36.985       53
   37.000       58
   37.015       45
   37.030       54
   37.045       59
   37.060       59
   37.075       42
   37.090       57
   37.105       58
   37.120       54
   37.135       63
   37.150       60
   37.165       58
   37.180       53
   37.195       58
   37.210       60
   37.225       70
   37.240       67
   37.255       62
   37.270       56
   37.285       56
   37.300       60
   37.315       72
   37.330       63
   37.345       46
   37.360       59
   37.375       60
   37.390       49
   37.405       59
   37.420       67
   37.435       75
   37.450       71
   37.465       59
   37.480       59
   37.495       62
   37.510       53
   37.525       49
   37.540       43
   37.555       45
   37.570       45
   37.585       55
   37.600       49
   37.615       34
   37.630       45
   37.645       53
   37.660       50
   37.675       42
   37.690       39
   37.705       62
   37.720       46
   37.735       39
   37.750       44
   37.765       45
   37.780       51
   37.795       56
   37.810       58
   37.825       49
   37.840       53
   37.855       38
   37.870       47
   37.885       51
   37.900       45
   37.915       52
   37.930       58
   37.945       49
   37.960       47
   37.975       60
   37.990       62
   38.005       57
   38.020       51
   38.035       50
   38.050       46
   38.065       57
   38.080       55
   38.095       56
   38.110       56
   38.125       60
   38.140       51
   38.155       54
   38.170       59
   38.185       55
   38.200       60
   38.215       46
   38.230       50
   38.245       64
   38.260       51
   38.275       47
   38.290       51
   38.305       50
   38.320       53
   38.335       57
   38.350       60
   38.365       55
   38.380       64
   38.395       61
   38.410       58
   38.425       52
   38.440       60
   38.455       49
   38.470       54
   38.485       66
   38.500       75
   38.515       72
   38.530       62
   38.545       60
   38.560       73
   38.575       59
   38.590       49
   38.605       41
   38.620       53
   38.635       44
   38.650       50
   38.665       41
   38.680       61
   38.695       54
   38.710       76
   38.725       58
   38.740       52
   38.755       52
   38.770       62
   38.785       67
   38.800       52
   38.815       66
   38.830       65
   38.845       54
   38.860       70
   38.875       58
   38.890       51
   38.905       56
   38.920       46
   38.935       51
   38.950       53
   38.965       58
   38.980       60
   38.995       67
   39.010       62
   39.025       62
   39.040       64
   39.055       66
   39.070       53
   39.085       58
   39.100       60
   39.115       57
   39.130       61
   39.145       54
   39.160       62
   39.175       50
   39.190       49
   39.205       61
   39.220       44
   39.235       58
   39.250       55
   39.265       45
   39.280       64
   39.295       53
   39.310       57
   39.325       56
   39.340       36
   39.355       40
   39.370       50
   39.385       50
   39.400       54
   39.415       56
   39.430       46
   39.445       36
   39.460       42
   39.475       40
   39.490       43
   39.505       44
   39.520       43
   39.535       48
   39.550       51
   39.565       60
   39.580       45
   39.595       50
   39.610       48
   39.625       46
   39.640       40
   39.655       38
   39.670       43
   39.685       50
   39.700       44
   39.715       38
   39.730       42
   39.745       43
   39.760       41
   39.775       51
   39.790       47
   39.805       53
   39.820       57
   39.835       61
   39.850       49
   39.865       54
   39.880       57
   39.895       62
   39.910       49
   39.925       57
   39.940       60
   39.955       58
   39.970       53
   39.985       59
   40.000       57
   40.015       47
   40.030       51
   40.045       72
   40.060       67
   40.075       43
   40.090       45
   40.105       56
   40.120       51
   40.135       47
   40.150       47
   40.165       42
   40.180       44
   40.195       55
   40.210       46
   40.225       48
   40.240       54
   40.255       50
   40.270       55
   40.285       48
   40.300       46
   40.315       53
   40.330       48
   40.345       40
   40.360       52
   40.375       54
   40.390       54
   40.405       51
   40.420       52
   40.435       53
   40.450       53
   40.465       59
   40.480       50
   40.495       49
   40.510       57
   40.525       70
   40.540       58
   40.555       59
   40.570       68
   40.585       64
   40.600       56
   40.615       55
   40.630       59
   40.645       60
   40.660       51
   40.675       53
   40.690       59
   40.705       54
   40.720       53
   40.735       56
   40.750       55
   40.765       56
   40.780       49
   40.795       43
   40.810       55
   40.825       51
   40.840       47
   40.855       45
   40.870       46
   40.885       43
   40.900       51
   40.915       60
   40.930       62
   40.945       60
   40.960       60
   40.975       56
   40.990       54
   41.005       63
   41.020       61
   41.035       49
   41.050       52
   41.065       45
   41.080       52
   41.095       47
   41.110       38
   41.125       40
   41.140       41
   41.155       40
   41.170       44
   41.185       49
   41.200       53
   41.215       43
   41.230       42
   41.245       45
   41.260       53
   41.275       51
   41.290       55
   41.305       49
   41.320       46
   41.335       50
   41.350       37
   41.365       36
   41.380       42
   41.395       47
   41.410       46
   41.425       48
   41.440       42
   41.455       44
   41.470       45
   41.485       44
   41.500       49
   41.515       48
   41.530       40
   41.545       42
   41.560       49
   41.575       47
   41.590       50
   41.605       44
   41.620       50
   41.635       46
   41.650       39
   41.665       42
   41.680       45
   41.695       52
   41.710       48
   41.725       54
   41.740       53
   41.755       48
   41.770       45
   41.785       35
   41.800       50
   41.815       51
   41.830       45
   41.845       48
   41.860       39
   41.875       46
   41.890       52
   41.905       56
   41.920       60
   41.935       54
   41.950       39
   41.965       60
   41.980       59
   41.995       54
   42.010       52
   42.025       48
   42.040       41
   42.055       45
   42.070       45
   42.085       43
   42.100       49
   42.115       57
   42.130       51
   42.145       59
   42.160       48
   42.175       55
   42.190       51
   42.205       47
   42.220       55
   42.235       45
   42.250       47
   42.265       49
   42.280       42
   42.295       30
   42.310       46
   42.325       51
   42.340       49
   42.355       46
   42.370       57
   42.385       54
   42.400       47
   42.415       39
   42.430       57
   42.445       46
   42.460       46
   42.475       46
   42.490       52
   42.505       64
   42.520       66
   42.535       52
   42.550       47
   42.565       58
   42.580       61
   42.595       38
   42.610       44
   42.625       45
   42.640       48
   42.655       64
   42.670       52
   42.685       42
   42.700       50
   42.715       38
   42.730       44
   42.745       37
   42.760       48
   42.775       50
   42.790       44
   42.805       47
   42.820       31
   42.835       37
   42.850       44
   42.865       40
   42.880       43
   42.895       51
   42.910       45
   42.925       37
   42.940       41
   42.955       39
   42.970       46
   42.985       45
   43.000       42
   43.015       32
   43.030       42
   43.045       54
   43.060       44
   43.075       45
   43.090       33
   43.105       45
   43.120       45
   43.135       41
   43.150       51
   43.165       42
   43.180       44
   43.195       39
   43.210       45
   43.225       51
   43.240       51
   43.255       43
   43.270       45
   43.285       43
   43.300       45
   43.315       39
   43.330       38
   43.345       31
   43.360       42
   43.375       45
   43.390       32
   43.405       51
   43.420       50
   43.435       63
   43.450       56
   43.465       56
   43.480       41
   43.495       51
   43.510       44
   43.525       42
   43.540       44
   43.555       37
   43.570       45
   43.585       55
   43.600       47
   43.615       35
   43.630       40
   43.645       42
   43.660       40
   43.675       41
   43.690       36
   43.705       34
   43.720       30
   43.735       35
   43.750       40
   43.765       34
   43.780       42
   43.795       54
   43.810       42
   43.825       42
   43.840       39
   43.855       40
   43.870       45
   43.885       45
   43.900       38
   43.915       47
   43.930       46
   43.945       29
   43.960       44
   43.975       37
   43.990       40
   44.005       43
   44.020       36
   44.035       38
   44.050       41
   44.065       43
   44.080       47
   44.095       43
   44.110       43
   44.125       50
   44.140       48
   44.155       52
   44.170       56
   44.185       54
   44.200       38
   44.215       50
   44.230       51
   44.245       46
   44.260       63
   44.275       50
   44.290       62
   44.305       62
   44.320       52
   44.335       50
   44.350       55
   44.365       45
   44.380       46
   44.395       51
   44.410       52
   44.425       46
   44.440       47
   44.455       52
   44.470       55
   44.485       45
   44.500       34
   44.515       54
   44.530       48
   44.545       41
   44.560       49
   44.575       47
   44.590       45
   44.605       48
   44.620       56
   44.635       56
   44.650       58
   44.665       66
   44.680       58
   44.695       48
   44.710       43
   44.725       48
   44.740       44
   44.755       33
   44.770       56
   44.785       55
   44.800       43
   44.815       45
   44.830       41
   44.845       36
   44.860       38
   44.875       40
   44.890       59
   44.905       65
   44.920       52
   44.935       62
   44.950       61
   44.965       45
   44.980       49
   44.995       57
   45.010       48
   45.025       48
   45.040       47
   45.055       51
   45.070       51
   45.085       52
   45.100       48
   45.115       49
   45.130       47
   45.145       40
   45.160       48
   45.175       49
   45.190       55
   45.205       63
   45.220       51
   45.235       42
   45.250       56
   45.265       58
   45.280       57
   45.295       47
   45.310       45
   45.325       42
   45.340       42
   45.355       45
   45.370       47
   45.385       44
   45.400       46
   45.415       49
   45.430       59
   45.445       53
   45.460       45
   45.475       47
   45.490       47
   45.505       49
   45.520       44
   45.535       42
   45.550       51
   45.565       38
   45.580       48
   45.595       49
   45.610       46
   45.625       47
   45.640       50
   45.655       44
   45.670       47
   45.685       46
   45.700       45
   45.715       39
   45.730       41
   45.745       42
   45.760       44
   45.775       44
   45.790       47
   45.805       39
   45.820       42
   45.835       36
   45.850       48
   45.865       37
   45.880       39
   45.895       50
   45.910       47
   45.925       45
   45.940       40
   45.955       47
   45.970       50
   45.985       38
