    4.000       48
    4.015       47
    4.030       48
    4.045       47
    4.060       48
    4.075       56
    4.090       44
    4.105       49
    4.120       48
    4.135       44
    4.150       47
    4.165       49
    4.180       46
    4.195       49
    4.210       49
    4.225       50
    4.240       46
    4.255       47
    4.270       55
    4.285       53
    4.300       49
    4.315       43
    4.330       53
    4.345       41
    4.360       41
    4.375       38
    4.390       46
    4.405       48
    4.420       41
    4.435       42
    4.450       44
    4.465       34
    4.480       39
    4.495       52
    4.510       47
    4.525       43
    4.540       52
    4.555       58
    4.570       44
    4.585       50
    4.600       60
    4.615       47
    4.630       51
    4.645       48
    4.660       48
    4.675       48
    4.690       42
    4.705       40
    4.720       55
    4.735       53
    4.750       48
    4.765       40
    4.780       41
    4.795       34
    4.810       41
    4.825       52
    4.840       53
    4.855       45
    4.870       45
    4.885       46
    4.900       41
    4.915       36
    4.930       46
    4.945       44
    4.960       39
    4.975       37
    4.990       38
    5.005       36
    5.020       55
    5.035       53
    5.050       41
    5.065       38
    5.080       37
    5.095       39
    5.110       40
    5.125       41
    5.140       49
    5.155       41
    5.170       35
    5.185       37
    5.200       53
    5.215       48
    5.230       38
    5.245       44
    5.260       45
    5.275       39
    5.290       31
    5.305       53
    5.320       41
    5.335       36
    5.350       43
    5.365       44
    5.380       44
    5.395       41
    5.410       36
    5.425       38
    5.440       45
    5.455       50
    5.470       33
    5.485       46
    5.500       42
    5.515       38
    5.530       29
    5.545       37
    5.560       50
    5.575       48
    5.590       47
    5.605       48
    5.620       44
    5.635       51
    5.650       41
    5.665       51
    5.680       56
    5.695       43
    5.710       41
    5.725       41
    5.740       44
    5.755       46
    5.770       34
    5.785       50
    5.800       49
    5.815       45
    5.830       41
    5.845       38
    5.860       33
    5.875       41
    5.890       43
    5.905       32
    5.920       40
    5.935       30
    5.950       42
    5.965       36
    5.980       36
    5.995       38
    6.010       49
    6.025       39
    6.040       47
    6.055       40
    6.070       40
    6.085       36
    6.100       42
    6.115       36
    6.130       41
    6.145       49
    6.160       38
    6.175       37
    6.190       46
    6.205       48
    6.220       43
    6.235       45
    6.250       50
    6.265       60
    6.280       57
    6.295       70
    6.310       57
    6.325       65
    6.340       68
    6.355       64
    6.370       77
    6.385       85
    6.400       83
    6.415       99
    6.430      112
    6.445      105
    6.460      115
    6.475      132
    6.490      138
    6.505      149
    6.520      159
    6.535      173
    6.550      184
    6.565      202
    6.580      247
    6.595      308
    6.610      345
    6.625      335
    6.640      290
    6.655      327
    6.670      320
    6.685      237
    6.700      158
    6.715       89
    6.730       64
    6.745       58
    6.760       54
    6.775       43
    6.790       49
    6.805       43
    6.820       40
    6.835       52
    6.850       52
    6.865       57
    6.880       42
    6.895       43
    6.910       45
    6.925       45
    6.940       57
    6.955       42
    6.970       48
    6.985       56
    7.000       49
    7.015       48
    7.030       58
    7.045       59
    7.060       58
    7.075       52
    7.090       47
    7.105       62
    7.120       62
    7.135       66
    7.150       79
    7.165       69
    7.180       91
    7.195       95
    7.210       78
    7.225       66
    7.240       44
    7.255       35
    7.270       50
    7.285       44
    7.300       48
    7.315       42
    7.330       33
    7.345       54
    7.360       47
    7.375       47
    7.390       33
    7.405       47
    7.420       38
    7.435       39
    7.450       41
    7.465       48
    7.480       36
    7.495       51
    7.510       36
    7.525       37
    7.540       40
    7.555       44
    7.570       46
    7.585       38
    7.600       44
    7.615       39
    7.630       42
    7.645       55
    7.660       55
    7.675       41
    7.690       47
    7.705       34
    7.720       43
    7.735       35
    7.750       41
    7.765       38
    7.780       43
    7.795       48
    7.810       42
    7.825       39
    7.840       38
    7.855       39
    7.870       43
    7.885       42
    7.900       36
    7.915       32
    7.930       48
    7.945       50
    7.960       44
    7.975       38
    7.990       42
    8.005       41
    8.020       42
    8.035       49
    8.050       49
    8.065       38
    8.080       41
    8.095       43
    8.110       47
    8.125       41
    8.140       41
    8.155       46
    8.170       44
    8.185       34
    8.200       45
    8.215       36
    8.230       42
    8.245       44
    8.260       54
    8.275       44
    8.290       39
    8.305       38
    8.320       40
    8.335       39
    8.350       46
    8.365       43
    8.380       41
    8.395       43
    8.410       39
    8.425       45
    8.440       55
    8.455       44
    8.470       35
    8.485       41
    8.500       38
    8.515       35
    8.530       53
    8.545       58
    8.560       46
    8.575       51
    8.590       47
    8.605       38
    8.620       44
    8.635       54
    8.650       50
    8.665       48
    8.680       44
    8.695       47
    8.710       39
    8.725       43
    8.740       48
    8.755       36
    8.770       33
    8.785       34
    8.800       46
    8.815       56
    8.830       50
    8.845       39
    8.860       38
    8.875       52
    8.890       47
    8.905       43
    8.920       39
    8.935       42
    8.950       29
    8.965       33
    8.980       47
    8.995       49
    9.010       39
    9.025       38
    9.040       37
    9.055       41
    9.070       41
    9.085       47
    9.100       41
    9.115       43
    9.130       39
    9.145       37
    9.160       46
    9.175       57
    9.190       48
    9.205       45
    9.220       46
    9.235       39
    9.250       53
    9.265       50
    9.280       52
    9.295       47
    9.310       43
    9.325       44
    9.340       44
    9.355       50
    9.370       56
    9.385       59
    9.400       42
    9.415       44
    9.430       56
    9.445       54
    9.460       56
    9.475       53
    9.490       50
    9.505       48
    9.520       46
    9.535       39
    9.550       54
    9.565       43
    9.580       49
    9.595       46
    9.610       49
    9.625       43
    9.640       37
    9.655       44
    9.670       46
    9.685       52
    9.700       38
    9.715       40
    9.730       66
    9.745       55
    9.760       62
    9.775       62
    9.790       46
    9.805       48
    9.820       49
    9.835       39
    9.850       40
    9.865       47
    9.880       42
    9.895       40
    9.910       38
    9.925       38
    9.940       57
    9.955       50
    9.970       43
    9.985       49
   10.000       53
   10.015       51
   10.030       52
   10.045       39
   10.060       45
   10.075       44
   10.090       47
   10.105       39
   10.120       40
   10.135       51
   10.150       49
   10.165       44
   10.180       40
   10.195       46
   10.210       43
   10.225       45
   10.240       49
   10.255       48
   10.270       53
   10.285       53
   10.300       57
   10.315       52
   10.330       52
   10.345       48
   10.360       55
   10.375       51
   10.390       44
   10.405       55
   10.420       56
   10.435       56
   10.450       64
   10.465       65
   10.480       69
   10.495       80
   10.510       68
   10.525       64
   10.540       49
   10.555       58
   10.570       63
   10.585       55
   10.600       49
   10.615       56
   10.630       57
   10.645       63
   10.660       58
   10.675       66
   10.690       65
   10.705       73
   10.720       88
   10.735       98
   10.750       90
   10.765      112
   10.780      121
   10.795      145
   10.810      145
   10.825      149
   10.840      178
   10.855      226
   10.870      233
   10.885      209
   10.900      171
   10.915      123
   10.930       86
   10.945       62
   10.960       52
   10.975       49
   10.990       46
   11.005       49
   11.020       50
   11.035       50
   11.050       55
   11.065       52
   11.080       47
   11.095       53
   11.110       53
   11.125       63
   11.140       64
   11.155       56
   11.170       63
   11.185       65
   11.200       56
   11.215       71
   11.230       79
   11.245       84
   11.260       87
   11.275       63
   11.290       67
   11.305       57
   11.320       58
   11.335       43
   11.350       53
   11.365       51
   11.380       54
   11.395       62
   11.410       60
   11.425       61
   11.440       70
   11.455       60
   11.470       65
   11.485       50
   11.500       43
   11.515       44
   11.530       38
   11.545       50
   11.560       51
   11.575       55
   11.590       58
   11.605       51
   11.620       44
   11.635       48
   11.650       58
   11.665       56
   11.680       48
   11.695       48
   11.710       61
   11.725       62
   11.740       59
   11.755       59
   11.770       58
   11.785       68
   11.800       72
   11.815       79
   11.830       82
   11.845       93
   11.860       75
   11.875       83
   11.890       81
   11.905       73
   11.920       67
   11.935       62
   11.950       54
   11.965       65
   11.980       74
   11.995       49
   12.010       60
   12.025       56
   12.040       53
   12.055       58
   12.070       61
   12.085       74
   12.100       56
   12.115       58
   12.130       49
   12.145       58
   12.160       53
   12.175       40
   12.190       52
   12.205       44
   12.220       34
   12.235       46
   12.250       55
   12.265       49
   12.280       50
   12.295       48
   12.310       50
   12.325       42
   12.340       49
   12.355       41
   12.370       53
   12.385       55
   12.400       40
   12.415       42
   12.430       49
   12.445       51
   12.460       55
   12.475       68
   12.490       59
   12.505       53
   12.520       58
   12.535       63
   12.550       65
   12.565       91
   12.580       94
   12.595      103
   12.610      106
   12.625      138
   12.640      153
   12.655      164
   12.670      205
   12.685      234
   12.700      260
   12.715      244
   12.730      205
   12.745      184
   12.760      163
   12.775      151
   12.790      140
   12.805      106
   12.820       86
   12.835       77
   12.850       66
   12.865       63
   12.880       59
   12.895       50
   12.910       66
   12.925       57
   12.940       77
   12.955       74
   12.970       91
   12.985      103
   13.000      106
   13.015      107
   13.030      122
   13.045      154
   13.060      192
   13.075      208
   13.090      180
   13.105      163
   13.120      153
   13.135      157
   13.150      169
   13.165      185
   13.180      234
   13.195      271
   13.210      318
   13.225      336
   13.240      394
   13.255      509
   13.270      607
   13.285      481
   13.300      412
   13.315      384
   13.330      465
   13.345      582
   13.360      778
   13.375      934
   13.390      699
   13.405      466
   13.420      302
   13.435      147
   13.450      114
   13.465       98
   13.480      105
   13.495      109
   13.510      116
   13.525      137
   13.540      143
   13.555      179
   13.570      187
   13.585      214
   13.600      274
   13.615      258
   13.630      268
   13.645      273
   13.660      241
   13.675      165
   13.690      117
   13.705       94
   13.720       71
   13.735       66
   13.750       64
   13.765       67
   13.780       72
   13.795       74
   13.810       73
   13.825       74
   13.840       74
   13.855       79
   13.870       76
   13.885       91
   13.900       80
   13.915       68
   13.930       72
   13.945       69
   13.960       56
   13.975       53
   13.990       56
   14.005       61
   14.020       72
   14.035       63
   14.050       50
   14.065       63
   14.080       60
   14.095       64
   14.110       59
   14.125       59
   14.140       62
   14.155       65
   14.170       73
   14.185       63
   14.200       66
   14.215       70
   14.230       90
   14.245       94
   14.260      100
   14.275      101
   14.290      114
   14.305      135
   14.320      158
   14.335      223
   14.350      243
   14.365      224
   14.380      182
   14.395      161
   14.410      162
   14.425      166
   14.440      171
   14.455      141
   14.470      139
   14.485      139
   14.500      144
   14.515      175
   14.530      185
   14.545      235
   14.560      278
   14.575      252
   14.590      178
   14.605      138
   14.620      105
   14.635       82
   14.650       61
   14.665       59
   14.680       56
   14.695       64
   14.710       75
   14.725       70
   14.740       60
   14.755       64
   14.770       61
   14.785       62
   14.800       65
   14.815       76
   14.830       74
   14.845       63
   14.860       76
   14.875       70
   14.890       66
   14.905       56
   14.920       74
   14.935       71
   14.950       87
   14.965       99
   14.980      101
   14.995      149
   15.010      183
   15.025      186
   15.040      217
   15.055      294
   15.070      329
   15.085      377
   15.100      411
   15.115      480
   15.130      625
   15.145      693
   15.160      693
   15.175      488
   15.190      302
   15.205      210
   15.220      146
   15.235      130
   15.250      148
   15.265      145
   15.280      142
   15.295      143
   15.310      160
   15.325      180
   15.340      179
   15.355      193
   15.370      215
   15.385      220
   15.400      195
   15.415      159
   15.430      164
   15.445      142
   15.460      132
   15.475      113
   15.490      100
   15.505       97
   15.520      103
   15.535      122
   15.550      152
   15.565      176
   15.580      188
   15.595      208
   15.610      276
   15.625      306
   15.640      327
   15.655      321
   15.670      287
   15.685      223
   15.700      161
   15.715      168
   15.730      169
   15.745      164
   15.760      146
   15.775      135
   15.790      159
   15.805      173
   15.820      189
   15.835      229
   15.850      231
   15.865      199
   15.880      164
   15.895       99
   15.910       83
   15.925       72
   15.940       89
   15.955       73
   15.970       78
   15.985       76
   16.000       74
   16.015       98
   16.030       98
   16.045       83
   16.060       94
   16.075      117
   16.090      114
   16.105      135
   16.120      141
   16.135      169
   16.150      187
   16.165      226
   16.180      231
   16.195      245
   16.210      271
   16.225      228
   16.240      182
   16.255      128
   16.270       99
   16.285      101
   16.300       92
   16.315      110
   16.330      108
   16.345      124
   16.360      118
   16.375      113
   16.390      146
   16.405      160
   16.420      186
   16.435      217
   16.450      267
   16.465      307
   16.480      394
   16.495      473
   16.510      460
   16.525      366
   16.540      304
   16.555      267
   16.570      234
   16.585      275
   16.600      282
   16.615      273
   16.630      264
   16.645      248
   16.660      230
   16.675      221
   16.690      234
   16.705      194
   16.720      189
   16.735      224
   16.750      263
   16.765      270
   16.780      290
   16.795      267
   16.810      247
   16.825      271
   16.840      261
   16.855      241
   16.870      212
   16.885      204
   16.900      144
   16.915      116
   16.930      107
   16.945      106
   16.960       96
   16.975       92
   16.990       99
   17.005      106
   17.020      131
   17.035      145
   17.050      167
   17.065      199
   17.080      256
   17.095      293
   17.110      256
   17.125      218
   17.140      191
   17.155      167
   17.170      155
   17.185      165
   17.200      183
   17.215      227
   17.230      269
   17.245      336
   17.260      352
   17.275      361
   17.290      331
   17.305      311
   17.320      232
   17.335      161
   17.350      131
   17.365      119
   17.380      116
   17.395      113
   17.410      120
   17.425      115
   17.440      101
   17.455       88
   17.470       96
   17.485      144
   17.500      129
   17.515      142
   17.530      191
   17.545      221
   17.560      201
   17.575      168
   17.590      126
   17.605      120
   17.620       85
   17.635       87
   17.650       76
   17.665       82
   17.680      101
   17.695       90
   17.710      113
   17.725      114
   17.740      109
   17.755       94
   17.770       89
   17.785       95
   17.800       93
   17.815      102
   17.830      123
   17.845      105
   17.860      109
   17.875       93
   17.890      103
   17.905       75
   17.920       76
   17.935       76
   17.950       64
   17.965       73
   17.980       75
   17.995       60
   18.010       56
   18.025       64
   18.040       57
   18.055       49
   18.070       67
   18.085       64
   18.100       62
   18.115       63
   18.130       63
   18.145       68
   18.160       67
   18.175       74
   18.190       72
   18.205       82
   18.220       77
   18.235       89
   18.250      101
   18.265      119
   18.280      124
   18.295      133
   18.310      154
   18.325      177
   18.340      205
   18.355      218
   18.370      229
   18.385      186
   18.400      172
   18.415      121
   18.430       89
   18.445       78
   18.460       81
   18.475       70
   18.490       76
   18.505       67
   18.520       75
   18.535       87
   18.550       83
   18.565       89
   18.580       93
   18.595      106
   18.610      108
   18.625      133
   18.640      154
   18.655      165
   18.670      136
   18.685      109
   18.700      122
   18.715      129
   18.730      126
   18.745      121
   18.760      117
   18.775      112
   18.790      117
   18.805      102
   18.820       81
   18.835       66
   18.850       92
   18.865       72
   18.880       76
   18.895       73
   18.910       77
   18.925       92
   18.940      106
   18.955      106
   18.970      115
   18.985       93
   19.000       89
   19.015       80
   19.030       82
   19.045       84
   19.060       80
   19.075       99
   19.090       85
   19.105       83
   19.120       66
   19.135       88
   19.150       68
   19.165       74
   19.180       56
   19.195       55
   19.210       57
   19.225       64
   19.240       59
   19.255       58
   19.270       65
   19.285       57
   19.300       63
   19.315       61
   19.330       60
   19.345       62
   19.360       54
   19.375       60
   19.390       72
   19.405       62
   19.420       55
   19.435       57
   19.450       66
   19.465       76
   19.480       87
   19.495       72
   19.510       58
   19.525       68
   19.540      102
   19.555       98
   19.570      102
   19.585      119
   19.600      123
   19.615      133
   19.630      123
   19.645      144
   19.660      149
   19.675      153
   19.690      144
   19.705      148
   19.720      141
   19.735      118
   19.750       93
   19.765       96
   19.780       84
   19.795       94
   19.810       90
   19.825       94
   19.840      108
   19.855      127
   19.870      161
   19.885      183
   19.900      221
   19.915      260
   19.930      311
   19.945      379
   19.960      445
   19.975      450
   19.990      387
   20.005      300
   20.020      265
   20.035      254
   20.050      272
   20.065      275
   20.080      295
   20.095      296
   20.110      243
   20.125      215
   20.140      165
   20.155      129
   20.170       97
   20.185       76
   20.200       76
   20.215       79
   20.230       67
   20.245       84
   20.260       93
   20.275       89
   20.290       87
   20.305       81
   20.320       77
   20.335       72
   20.350       77
   20.365       67
   20.380       71
   20.395       70
   20.410       59
   20.425       61
   20.440       71
   20.455       70
   20.470       73
   20.485       83
   20.500       79
   20.515       64
   20.530       69
   20.545       56
   20.560       71
   20.575       73
   20.590       73
   20.605       88
   20.620       82
   20.635       85
   20.650       83
   20.665       76
   20.680       76
   20.695       67
   20.710       77
   20.725       79
   20.740       87
   20.755       81
   20.770       81
   20.785       88
   20.800       88
   20.815      109
   20.830      111
   20.845      117
   20.860      111
   20.875      111
   20.890      109
   20.905      104
   20.920      118
   20.935      121
   20.950      133
   20.965      109
   20.980       79
   20.995       79
   21.010       66
   21.025       59
   21.040       75
   21.055       69
   21.070       70
   21.085       73
   21.100       82
   21.115       72
   21.130       66
   21.145       68
   21.160       53
   21.175       58
   21.190       65
   21.205       55
   21.220       55
   21.235       56
   21.250       78
   21.265       77
   21.280       79
   21.295       86
   21.310       94
   21.325       93
   21.340       81
   21.355       79
   21.370       76
   21.385       70
   21.400       60
   21.415       49
   21.430       52
   21.445       54
   21.460       70
   21.475       82
   21.490       71
   21.505       76
   21.520       76
   21.535       70
   21.550       70
   21.565       69
   21.580       77
   21.595       75
   21.610       93
   21.625      105
   21.640      119
   21.655      142
   21.670      159
   21.685      166
   21.700      158
   21.715      147
   21.730      127
   21.745       98
   21.760      130
   21.775      142
   21.790      172
   21.805      211
   21.820      278
   21.835      373
   21.850      457
   21.865      396
   21.880      318
   21.895      224
   21.910      167
   21.925      138
   21.940      103
   21.955      108
   21.970       95
   21.985       93
   22.000       90
   22.015       78
   22.030       69
   22.045       72
   22.060       67
   22.075       56
   22.090       60
   22.105       61
   22.120       72
   22.135       52
   22.150       57
   22.165       53
   22.180       65
   22.195       60
   22.210       58
   22.225       57
   22.240       53
   22.255       55
   22.270       48
   22.285       55
   22.300       50
   22.315       63
   22.330       65
   22.345       75
   22.360       81
   22.375       69
   22.390       76
   22.405       78
   22.420       79
   22.435       91
   22.450       88
   22.465       88
   22.480       85
   22.495       73
   22.510       77
   22.525       62
   22.540       51
   22.555       55
   22.570       62
   22.585       88
   22.600       82
   22.615       91
   22.630       93
   22.645       95
   22.660      104
   22.675       98
   22.690      103
   22.705      105
   22.720      112
   22.735       94
   22.750       82
   22.765       72
   22.780       80
   22.795       91
   22.810       89
   22.825       96
   22.840      113
   22.855      135
   22.870      147
   22.885      142
   22.900      139
   22.915      132
   22.930      125
   22.945      129
   22.960      102
   22.975       95
   22.990       80
   23.005       78
   23.020       69
   23.035       69
   23.050       61
   23.065       57
   23.080       77
   23.095       67
   23.110       77
   23.125       95
   23.140       92
   23.155       73
   23.170       82
   23.185       88
   23.200       82
   23.215       80
   23.230       88
   23.245      101
   23.260      116
   23.275      101
   23.290       95
   23.305       86
   23.320       71
   23.335       73
   23.350       57
   23.365       55
   23.380       57
   23.395       60
   23.410       69
   23.425       58
   23.440       55
   23.455       62
   23.470       60
   23.485       60
   23.500       68
   23.515       65
   23.530       62
   23.545       56
   23.560       50
   23.575       64
   23.590       72
   23.605       65
   23.620       63
   23.635       60
   23.650       68
   23.665       62
   23.680       61
   23.695       59
   23.710       62
   23.725       57
   23.740       73
   23.755       50
   23.770       58
   23.785       80
   23.800       74
   23.815       87
   23.830       82
   23.845       74
   23.860       85
   23.875       76
   23.890       73
   23.905       76
   23.920       62
   23.935       53
   23.950       53
   23.965       49
   23.980       62
   23.995       69
   24.010       80
   24.025       95
   24.040      105
   24.055       86
   24.070       82
   24.085       76
   24.100       58
   24.115       71
   24.130       66
   24.145       54
   24.160       55
   24.175       60
   24.190       58
   24.205       62
   24.220       70
   24.235       62
   24.250       60
   24.265       70
   24.280       75
   24.295       76
   24.310       80
   24.325       74
   24.340       71
   24.355       69
   24.370       61
   24.385       59
   24.400       59
   24.415       61
   24.430       49
   24.445       52
   24.460       67
   24.475       60
   24.490       68
   24.505       55
   24.520       52
   24.535       49
   24.550       48
   24.565       48
   24.580       55
   24.595       65
   24.610       70
   24.625       83
   24.640       80
   24.655       82
   24.670       94
   24.685       91
   24.700       84
   24.715       93
   24.730       81
   24.745       75
   24.760       61
   24.775       74
   24.790       55
   24.805       66
   24.820       73
   24.835       68
   24.850       58
   24.865       47
   24.880       66
   24.895       52
   24.910       48
   24.925       57
   24.940       67
   24.955       53
   24.970       67
   24.985       74
   25.000       85
   25.015       96
   25.030       99
   25.045      102
   25.060       97
   25.075      104
   25.090       79
   25.105       71
   25.120       64
   25.135       68
   25.150       58
   25.165       57
   25.180       60
   25.195       67
   25.210       69
   25.225       72
   25.240       82
   25.255       67
   25.270       60
   25.285       66
   25.300       72
   25.315       49
   25.330       57
   25.345       63
   25.360       55
   25.375       55
   25.390       81
   25.405       87
   25.420       87
   25.435       95
   25.450      106
   25.465       92
   25.480       91
   25.495       97
   25.510       78
   25.525       64
   25.540       68
   25.555       72
   25.570       71
   25.585       80
   25.600       59
   25.615       68
   25.630       67
   25.645       77
   25.660      101
   25.675      105
   25.690      103
   25.705      118
   25.720      126
   25.735      126
   25.750      120
   25.765      110
   25.780      109
   25.795       90
   25.810       77
   25.825       81
   25.840       75
   25.855       84
   25.870       80
   25.885       83
   25.900       94
   25.915       93
   25.930      121
   25.945      136
   25.960      123
   25.975      108
   25.990       86
   26.005       69
   26.020       78
   26.035       66
   26.050       59
   26.065       65
   26.080       63
   26.095       71
   26.110       74
   26.125       71
   26.140       53
   26.155       65
   26.170       70
   26.185       75
   26.200       80
   26.215       91
   26.230      101
   26.245      100
   26.260       95
   26.275       88
   26.290       73
   26.305       67
   26.320       67
   26.335       71
   26.350       73
   26.365       73
   26.380       77
   26.395       74
   26.410       73
   26.425       84
   26.440       71
   26.455       70
   26.470       69
   26.485       55
   26.500       62
   26.515       60
   26.530       60
   26.545       74
   26.560       78
   26.575       67
   26.590       59
   26.605       57
   26.620       58
   26.635       61
   26.650       57
   26.665       63
   26.680       69
   26.695       69
   26.710       78
   26.725       83
   26.740       81
   26.755       68
   26.770       68
   26.785       48
   26.800       56
   26.815       60
   26.830       58
   26.845       66
   26.860       72
   26.875       80
   26.890       71
   26.905       83
   26.920      101
   26.935      110
   26.950      127
   26.965      113
   26.980      123
   26.995      137
   27.010      113
   27.025      114
   27.040      100
   27.055      101
   27.070       75
   27.085       79
   27.100       81
   27.115       81
   27.130       80
   27.145       68
   27.160       65
   27.175       70
   27.190       74
   27.205       70
   27.220       65
   27.235       63
   27.250       60
   27.265       70
   27.280       77
   27.295       71
   27.310       72
   27.325       76
   27.340       69
   27.355       71
   27.370       68
   27.385       62
   27.400       68
   27.415       93
   27.430       85
   27.445       72
   27.460       76
   27.475       76
   27.490       95
   27.505       85
   27.520       74
   27.535       80
   27.550      102
   27.565      100
   27.580      115
   27.595      114
   27.610      125
   27.625      134
   27.640      149
   27.655      142
   27.670      139
   27.685      149
   27.700      142
   27.715      117
   27.730       97
   27.745       92
   27.760      100
   27.775       66
   27.790       69
   27.805       83
   27.820       86
   27.835      100
   27.850       93
   27.865       62
   27.880       83
   27.895       67
   27.910       91
   27.925      100
   27.940       97
   27.955      119
   27.970      108
   27.985      105
   28.000      102
   28.015       99
   28.030       84
   28.045       67
   28.060       86
   28.075       90
   28.090       95
   28.105       91
   28.120       85
   28.135       76
   28.150       77
   28.165       76
   28.180       81
   28.195       69
   28.210       84
   28.225       72
   28.240       73
   28.255       68
   28.270       70
   28.285       72
   28.300       81
   28.315       93
   28.330       97
   28.345       96
   28.360       83
   28.375       91
   28.390      101
   28.405       95
   28.420      106
   28.435      101
   28.450       87
   28.465       96
   28.480       87
   28.495       88
   28.510       88
   28.525       67
   28.540       64
   28.555       62
   28.570       64
   28.585       67
   28.600       61
   28.615       69
   28.630       73
   28.645       68
   28.660       64
   28.675       68
   28.690       73
   28.705       68
   28.720       70
   28.735       84
   28.750       84
   28.765       73
   28.780       73
   28.795       66
   28.810       68
   28.825       78
   28.840       77
   28.855       64
   28.870       60
   28.885       66
   28.900       74
   28.915       96
   28.930       86
   28.945       86
   28.960       80
   28.975       76
   28.990       84
   29.005       87
   29.020       95
   29.035       86
   29.050       71
   29.065       78
   29.080       78
   29.095       91
   29.110      100
   29.125      108
   29.140      101
   29.155       97
   29.170       89
   29.185       72
   29.200       75
   29.215       72
   29.230       76
   29.245       89
   29.260       83
   29.275       83
   29.290       78
   29.305       90
   29.320       75
   29.335       81
   29.350       73
   29.365       62
   29.380       81
   29.395       74
   29.410       62
   29.425       73
   29.440       56
   29.455       54
   29.470       67
   29.485       83
   29.500       76
   29.515       69
   29.530       72
   29.545       72
   29.560       71
   29.575       66
   29.590       65
   29.605       70
   29.620       83
   29.635       91
   29.650       99
   29.665       84
   29.680       88
   29.695       78
   29.710       73
   29.725       92
   29.740       97
   29.755      111
   29.770       99
   29.785       92
   29.800      111
   29.815       77
   29.830       70
   29.845       70
   29.860       72
   29.875       65
   29.890       59
   29.905       70
   29.920       67
   29.935       63
   29.950       69
   29.965       58
   29.980       59
   29.995       58
   30.010       48
   30.025       56
   30.040       60
   30.055       64
   30.070       59
   30.085       53
   30.100       56
   30.115       63
   30.130       61
   30.145       56
   30.160       70
   30.175       74
   30.190       63
   30.205       60
   30.220       60
   30.235       62
   30.250       62
   30.265       60
   30.280       65
   30.295       70
   30.310       78
   30.325       74
   30.340       82
   30.355       71
   30.370       71
   30.385       62
   30.400       73
   30.415       63
   30.430       52
   30.445       67
   30.460       63
   30.475       57
   30.490       65
   30.505       81
   30.520       70
   30.535       74
   30.550       78
   30.565       73
   30.580       79
   30.595       78
   30.610       86
   30.625       81
   30.640       89
   30.655       74
   30.670       76
   30.685       83
   30.700       75
   30.715       74
   30.730       71
   30.745       83
   30.760       89
   30.775       86
   30.790       72
   30.805       84
   30.820       79
   30.835       72
   30.850       78
   30.865       66
   30.880       64
   30.895       55
   30.910       76
   30.925       65
   30.940       75
   30.955       83
   30.970       85
   30.985       92
   31.000       68
   31.015       72
   31.030       90
   31.045       76
   31.060       89
   31.075       84
   31.090       86
   31.105       85
   31.120       91
   31.135       78
   31.150       84
   31.165       80
   31.180       74
   31.195       74
   31.210       62
   31.225       68
   31.240       60
   31.255       75
   31.270       74
   31.285       79
   31.300       65
   31.315       71
   31.330       70
   31.345       56
   31.360       81
   31.375       67
   31.390       75
   31.405       84
   31.420       71
   31.435       74
   31.450       65
   31.465       73
   31.480       65
   31.495       64
   31.510       67
   31.525       73
   31.540       74
   31.555       74
   31.570       70
   31.585       70
   31.600       83
   31.615       81
   31.630       95
   31.645       87
   31.660       89
   31.675       85
   31.690       86
   31.705       79
   31.720       79
   31.735       84
   31.750       79
   31.765       90
   31.780       81
   31.795       85
   31.810       98
   31.825       95
   31.840       75
   31.855       89
   31.870       84
   31.885       77
   31.900       89
   31.915       93
   31.930       76
   31.945       65
   31.960       69
   31.975       95
   31.990       90
   32.005       86
   32.020       89
   32.035       75
   32.050       75
   32.065       85
   32.080       82
   32.095       69
   32.110       66
   32.125       74
   32.140       86
   32.155       82
   32.170       81
   32.185       89
   32.200       86
   32.215       77
   32.230       73
   32.245       73
   32.260       69
   32.275       73
   32.290       72
   32.305       64
   32.320       68
   32.335       60
   32.350       60
   32.365       63
   32.380       59
   32.395       63
   32.410       63
   32.425       57
   32.440       58
   32.455       64
   32.470       66
   32.485       65
   32.500       61
   32.515       73
   32.530       65
   32.545       63
   32.560       54
   32.575       62
   32.590       57
   32.605       58
   32.620       53
   32.635       53
   32.650       65
   32.665       65
   32.680       51
   32.695       52
   32.710       60
   32.725       58
   32.740       58
   32.755       45
   32.770       66
   32.785       58
   32.800       64
   32.815       66
   32.830       55
   32.845       60
   32.860       66
   32.875       57
   32.890       58
   32.905       61
   32.920       57
   32.935       68
   32.950       87
   32.965       74
   32.980       64
   32.995       83
   33.010       76
   33.025       82
   33.040       86
   33.055       85
   33.070       72
   33.085       65
   33.100       65
   33.115       73
   33.130       53
   33.145       68
   33.160       66
   33.175       61
   33.190       64
   33.205       75
   33.220       67
   33.235       69
   33.250       69
   33.265       71
   33.280       73
   33.295       70
   33.310       60
   33.325       74
   33.340       67
   33.355       71
   33.370       70
   33.385       67
   33.400       78
   33.415       70
   33.430       68
   33.445       75
   33.460       76
   33.475       80
   33.490       79
   33.505       74
   33.520       63
   33.535       80
   33.550       93
   33.565       95
   33.580       84
   33.595       98
   33.610       93
   33.625       96
   33.640       82
   33.655       72
   33.670       57
   33.685       69
   33.700       72
   33.715       80
   33.730       72
   33.745       87
   33.760       72
   33.775       68
   33.790       73
   33.805       67
   33.820       80
   33.835       86
   33.850       72
   33.865       99
   33.880       87
   33.895       87
   33.910       84
   33.925       93
   33.940       83
   33.955       71
   33.970       71
   33.985       71
   34.000       66
   34.015       60
   34.030       75
   34.045       79
   34.060       72
   34.075       62
   34.090       70
   34.105       72
   34.120       70
   34.135       74
   34.150       75
   34.165       65
   34.180       77
   34.195       68
   34.210       67
   34.225       63
   34.240       57
   34.255       49
   34.270       55
   34.285       64
   34.300       64
   34.315       76
   34.330       58
   34.345       57
   34.360       54
   34.375       58
   34.390       69
   34.405       53
   34.420       53
   34.435       55
   34.450       59
   34.465       54
   34.480       51
   34.495       51
   34.510       60
   34.525       53
   34.540       65
   34.555       70
   34.570       76
   34.585       73
   34.600       68
   34.615       65
   34.630       64
   34.645       62
   34.660       48
   34.675       55
   34.690       57
   34.705       49
   34.720       53
   34.735       54
   34.750       58
   34.765       60
   34.780       62
   34.795       51
   34.810       60
   34.825       57
   34.840       67
   34.855       75
   34.870       64
   34.885       66
   34.900       72
   34.915       72
   34.930       72
   34.945       52
   34.960       51
   34.975       53
   34.990       62
   35.005       63
   35.020       66
   35.035       63
   35.050       54
   35.065       50
   35.080       62
   35.095       75
   35.110       62
   35.125       62
   35.140       68
   35.155       72
   35.170       63
   35.185       75
   35.200       73
   35.215       55
   35.230       66
   35.245       70
   35.260       65
   35.275       60
   35.290       81
   35.305       80
   35.320       79
   35.335       69
   35.350       68
   35.365       74
   35.380       64
   35.395       71
   35.410       70
   35.425       75
   35.440       76
   35.455       74
   35.470       70
   35.485       75
   35.500       69
   35.515       71
   35.530       75
   35.545       79
   35.560       71
   35.575       75
   35.590       80
   35.605       85
   35.620       79
   35.635       91
   35.650       78
   35.665       76
   35.680       87
   35.695      100
   35.710       76
   35.725       75
   35.740       54
   35.755       61
   35.770       64
   35.785       68
   35.800       66
   35.815       61
   35.830       62
   35.845       55
   35.860       62
   35.875       71
   35.890       58
   35.905       52
   35.920       50
   35.935       58
   35.950       72
   35.965       53
   35.980       52
   35.995       56
   36.010       59
   36.025       70
   36.040       52
   36.055       52
   36.070       59
   36.085       56
   36.100       52
   36.115       55
   36.130       58
   36.145       55
   36.160       55
   36.175       58
   36.190       54
   36.205       55
   36.220       60
   36.235       67
   36.250       58
   36.265       64
   36.280       57
   36.295       59
   36.310       58
   36.325       50
   36.340       62
   36.355       64
   36.370       57
   36.385       51
   36.400       53
   36.415       58
   36.430       63
   36.445       51
   36.460       65
   36.475       62
   36.490       56
   36.505       69
   36.520       65
   36.535       61
   36.550       56
   36.565       56
   36.580       57
   36.595       63
   36.610       48
   36.625       52
   36.640       47
   36.655       59
   36.670       60
   36.685       71
   36.700       64
   36.715       59
   36.730       63
   36.745       61
   36.760       57
   36.775       55
   36.790       45
   36.805       70
   36.820       63
   36.835       49
   36.850       61
   36.865       66
   36.880       63
   36.895       78
   36.910       74
   36.925       64
   36.940       57
   36.955       66
   36.970       64
   36.985       76
   37.000       50
   37.015       51
   37.030       52
   37.045       66
   37.060       62
   37.075       61
   37.090       64
   37.105       59
   37.120       57
   37.135       48
   37.150       67
   37.165       71
   37.180       84
   37.195       58
   37.210       57
   37.225       67
   37.240       85
   37.255       67
   37.270       75
   37.285       51
   37.300       49
   37.315       72
   37.330       75
   37.345       67
   37.360       69
   37.375       67
   37.390       57
   37.405       50
   37.420       59
   37.435       51
   37.450       40
   37.465       39
   37.480       59
   37.495       62
   37.510       51
   37.525       50
   37.540       59
   37.555       47
   37.570       48
   37.585       56
   37.600       57
   37.615       61
   37.630       50
   37.645       43
   37.660       51
   37.675       59
   37.690       54
   37.705       58
   37.720       58
   37.735       60
   37.750       51
   37.765       49
   37.780       52
   37.795       52
   37.810       45
   37.825       54
   37.840       55
   37.855       49
   37.870       52
   37.885       48
   37.900       57
   37.915       55
   37.930       55
   37.945       61
   37.960       57
   37.975       53
   37.990       58
   38.005       59
   38.020       54
   38.035       52
   38.050       56
   38.065       48
   38.080       55
   38.095       51
   38.110       50
   38.125       64
   38.140       60
   38.155       59
   38.170       54
   38.185       53
   38.200       66
   38.215       56
   38.230       56
   38.245       59
   38.260       59
   38.275       46
   38.290       54
   38.305       62
   38.320       64
   38.335       59
   38.350       61
   38.365       51
   38.380       55
   38.395       53
   38.410       57
   38.425       58
   38.440       66
   38.455       69
   38.470       68
   38.485       60
   38.500       68
   38.515       50
   38.530       60
   38.545       49
   38.560       49
   38.575       56
   38.590       55
   38.605       54
   38.620       48
   38.635       50
   38.650       47
   38.665       40
   38.680       59
   38.695       37
   38.710       52
   38.725       49
   38.740       45
   38.755       50
   38.770       51
   38.785       65
   38.800       54
   38.815       49
   38.830       55
   38.845       50
   38.860       47
   38.875       56
   38.890       51
   38.905       63
   38.920       58
   38.935       70
   38.950       54
   38.965       52
   38.980       55
   38.995       51
   39.010       57
   39.025       56
   39.040       56
   39.055       66
   39.070       55
   39.085       57
   39.100       54
   39.115       52
   39.130       58
   39.145       55
   39.160       56
   39.175       62
   39.190       52
   39.205       55
   39.220       54
   39.235       50
   39.250       47
   39.265       55
   39.280       55
   39.295       54
   39.310       52
   39.325       49
   39.340       57
   39.355       52
   39.370       55
   39.385       50
   39.400       53
   39.415       50
   39.430       48
   39.445       46
   39.460       52
   39.475       51
   39.490       52
   39.505       50
   39.520       44
   39.535       41
   39.550       37
   39.565       34
   39.580       47
   39.595       55
   39.610       50
   39.625       47
   39.640       58
   39.655       47
   39.670       46
   39.685       46
   39.700       46
   39.715       49
   39.730       50
   39.745       50
   39.760       54
   39.775       47
   39.790       60
   39.805       59
   39.820       58
   39.835       62
   39.850       65
   39.865       61
   39.880       57
   39.895       54
   39.910       59
   39.925       59
   39.940       58
   39.955       52
   39.970       49
   39.985       45
   40.000       48
   40.015       54
   40.030       49
   40.045       54
   40.060       65
   40.075       56
   40.090       50
   40.105       51
   40.120       46
   40.135       51
   40.150       53
   40.165       48
   40.180       37
   40.195       43
   40.210       43
   40.225       48
   40.240       62
   40.255       62
   40.270       51
   40.285       49
   40.300       48
   40.315       54
   40.330       46
   40.345       39
   40.360       62
   40.375       48
   40.390       44
   40.405       60
   40.420       52
   40.435       58
   40.450       42
   40.465       60
   40.480       59
   40.495       60
   40.510       71
   40.525       61
   40.540       62
   40.555       53
   40.570       46
   40.585       56
   40.600       56
   40.615       55
   40.630       50
   40.645       49
   40.660       40
   40.675       46
   40.690       51
   40.705       51
   40.720       44
   40.735       44
   40.750       60
   40.765       59
   40.780       51
   40.795       45
   40.810       39
   40.825       45
   40.840       45
   40.855       56
   40.870       60
   40.885       51
   40.900       61
   40.915       57
   40.930       58
   40.945       48
   40.960       47
   40.975       48
   40.990       47
   41.005       38
   41.020       36
   41.035       44
   41.050       46
   41.065       42
   41.080       45
   41.095       49
   41.110       44
   41.125       47
   41.140       46
   41.155       47
   41.170       52
   41.185       56
   41.200       51
   41.215       50
   41.230       43
   41.245       49
   41.260       48
   41.275       41
   41.290       42
   41.305       44
   41.320       43
   41.335       51
   41.350       62
   41.365       53
   41.380       52
   41.395       51
   41.410       47
   41.425       44
   41.440       48
   41.455       50
   41.470       54
   41.485       42
   41.500       32
   41.515       50
   41.530       50
   41.545       47
   41.560       45
   41.575       49
   41.590       49
   41.605       46
   41.620       48
   41.635       42
   41.650       40
   41.665       31
   41.680       36
   41.695       49
   41.710       34
   41.725       40
   41.740       46
   41.755       44
   41.770       55
   41.785       36
   41.800       46
   41.815       63
   41.830       56
   41.845       45
   41.860       53
   41.875       50
   41.890       49
   41.905       44
   41.920       54
   41.935       49
   41.950       38
   41.965       48
   41.980       41
   41.995       46
   42.010       50
   42.025       40
   42.040       42
   42.055       56
   42.070       47
   42.085       53
   42.100       46
   42.115       56
   42.130       53
   42.145       39
   42.160       46
   42.175       51
   42.190       54
   42.205       64
   42.220       56
   42.235       60
   42.250       44
   42.265       46
   42.280       46
   42.295       42
   42.310       43
   42.325       39
   42.340       47
   42.355       44
   42.370       49
   42.385       57
   42.400       49
   42.415       43
   42.430       45
   42.445       47
   42.460       52
   42.475       53
   42.490       51
   42.505       46
   42.520       46
   42.535       57
   42.550       52
   42.565       48
   42.580       56
   42.595       57
   42.610       54
   42.625       53
   42.640       55
   42.655       44
   42.670       53
   42.685       52
   42.700       45
   42.715       48
   42.730       52
   42.745       43
   42.760       38
   42.775       38
   42.790       46
   42.805       42
   42.820       42
   42.835       49
   42.850       33
   42.865       42
   42.880       41
   42.895       37
   42.910       45
   42.925       58
   42.940       42
   42.955       40
   42.970       47
   42.985       45
   43.000       39
   43.015       43
   43.030       36
   43.045       43
   43.060       50
   43.075       41
   43.090       36
   43.105       41
   43.120       43
   43.135       44
   43.150       44
   43.165       52
   43.180       52
   43.195       41
   43.210       34
   43.225       43
   43.240       43
   43.255       38
   43.270       42
   43.285       38
   43.300       45
   43.315       59
   43.330       53
   43.345       47
   43.360       46
   43.375       41
   43.390       36
   43.405       41
   43.420       42
   43.435       50
   43.450       52
   43.465       56
   43.480       55
   43.495       44
   43.510       42
   43.525       47
   43.540       47
   43.555       42
   43.570       48
   43.585       47
   43.600       45
   43.615       32
   43.630       34
   43.645       51
   43.660       35
   43.675       46
   43.690       40
   43.705       39
   43.720       45
   43.735       51
   43.750       46
   43.765       49
   43.780       51
   43.795       48
   43.810       40
   43.825       42
   43.840       51
   43.855       47
   43.870       44
   43.885       44
   43.900       38
   43.915       35
   43.930       48
   43.945       38
   43.960       44
   43.975       51
   43.990       47
   44.005       40
   44.020       48
   44.035       45
   44.050       44
   44.065       39
   44.080       51
   44.095       43
   44.110       39
   44.125       46
   44.140       53
   44.155       57
   44.170       58
   44.185       55
   44.200       61
   44.215       47
   44.230       43
   44.245       41
   44.260       44
   44.275       55
   44.290       58
   44.305       36
   44.320       38
   44.335       46
   44.350       45
   44.365       38
   44.380       42
   44.395       50
   44.410       47
   44.425       48
   44.440       55
   44.455       52
   44.470       44
   44.485       42
   44.500       44
   44.515       37
   44.530       44
   44.545       48
   44.560       42
   44.575       36
   44.590       41
   44.605       46
   44.620       38
   44.635       37
   44.650       40
   44.665       41
   44.680       48
   44.695       54
   44.710       43
   44.725       47
   44.740       34
   44.755       54
   44.770       42
   44.785       43
   44.800       56
   44.815       44
   44.830       46
   44.845       42
   44.860       57
   44.875       38
   44.890       51
   44.905       55
   44.920       46
   44.935       57
   44.950       52
   44.965       44
   44.980       44
   44.995       54
   45.010       49
   45.025       52
   45.040       57
   45.055       45
   45.070       51
   45.085       59
   45.100       47
   45.115       48
   45.130       46
   45.145       49
   45.160       51
   45.175       50
   45.190       50
   45.205       59
   45.220       54
   45.235       61
   45.250       49
   45.265       37
   45.280       49
   45.295       49
   45.310       41
   45.325       37
   45.340       41
   45.355       37
   45.370       43
   45.385       44
   45.400       47
   45.415       46
   45.430       39
   45.445       51
   45.460       47
   45.475       47
   45.490       41
   45.505       43
   45.520       41
   45.535       49
   45.550       51
   45.565       53
   45.580       40
   45.595       47
   45.610       41
   45.625       48
   45.640       44
   45.655       39
   45.670       51
   45.685       48
   45.700       47
   45.715       46
   45.730       49
   45.745       36
   45.760       49
   45.775       47
   45.790       45
   45.805       56
   45.820       59
   45.835       63
   45.850       47
   45.865       49
   45.880       48
   45.895       45
   45.910       37
   45.925       40
   45.940       54
   45.955       41
   45.970       39
   45.985       45
