    4.000       38
    4.015       47
    4.030       56
    4.045       46
    4.060       46
    4.075       39
    4.090       42
    4.105       33
    4.120       42
    4.135       61
    4.150       59
    4.165       47
    4.180       47
    4.195       40
    4.210       45
    4.225       46
    4.240       50
    4.255       48
    4.270       51
    4.285       43
    4.300       41
    4.315       49
    4.330       58
    4.345       48
    4.360       48
    4.375       46
    4.390       41
    4.405       44
    4.420       43
    4.435       45
    4.450       53
    4.465       55
    4.480       45
    4.495       46
    4.510       45
    4.525       47
    4.540       53
    4.555       48
    4.570       47
    4.585       50
    4.600       39
    4.615       51
    4.630       42
    4.645       42
    4.660       40
    4.675       41
    4.690       60
    4.705       45
    4.720       44
    4.735       46
    4.750       39
    4.765       47
    4.780       38
    4.795       48
    4.810       43
    4.825       39
    4.840       44
    4.855       47
    4.870       44
    4.885       44
    4.900       48
    4.915       43
    4.930       53
    4.945       50
    4.960       40
    4.975       46
    4.990       44
    5.005       34
    5.020       36
    5.035       38
    5.050       35
    5.065       48
    5.080       43
    5.095       42
    5.110       41
    5.125       44
    5.140       40
    5.155       39
    5.170       39
    5.185       45
    5.200       49
    5.215       48
    5.230       53
    5.245       45
    5.260       42
    5.275       34
    5.290       33
    5.305       32
    5.320       38
    5.335       37
    5.350       44
    5.365       51
    5.380       46
    5.395       38
    5.410       37
    5.425       40
    5.440       40
    5.455       45
    5.470       48
    5.485       39
    5.500       47
    5.515       47
    5.530       43
    5.545       36
    5.560       34
    5.575       44
    5.590       55
    5.605       50
    5.620       43
    5.635       38
    5.650       33
    5.665       34
    5.680       41
    5.695       41
    5.710       35
    5.725       35
    5.740       45
    5.755       45
    5.770       43
    5.785       37
    5.800       42
    5.815       40
    5.830       45
    5.845       34
    5.860       38
    5.875       41
    5.890       34
    5.905       53
    5.920       43
    5.935       49
    5.950       49
    5.965       38
    5.980       50
    5.995       45
    6.010       42
    6.025       43
    6.040       36
    6.055       48
    6.070       51
    6.085       56
    6.100       39
    6.115       37
    6.130       47
    6.145       55
    6.160       44
    6.175       43
    6.190       51
    6.205       43
    6.220       44
    6.235       55
    6.250       47
    6.265       49
    6.280       56
    6.295       57
    6.310       51
    6.325       60
    6.340       58
    6.355       69
    6.370       73
    6.385       67
    6.400       84
    6.415       94
    6.430      109
    6.445      124
    6.460      124
    6.475      136
    6.490      137
    6.505      136
    6.520      141
    6.535      143
    6.550      186
    6.565      188
    6.580      206
    6.595      219
    6.610      312
    6.625      345
    6.640      360
    6.655      331
    6.670      345
    6.685      317
    6.700      249
    6.715      142
    6.730       81
    6.745       57
    6.760       55
    6.775       45
    6.790       37
    6.805       44
    6.820       33
    6.835       39
    6.850       41
    6.865       49
    6.880       49
    6.895       50
    6.910       47
    6.925       45
    6.940       62
    6.955       58
    6.970       51
    6.985       54
    7.000       48
    7.015       36
    7.030       45
    7.045       41
    7.060       53
    7.075       49
    7.090       41
    7.105       49
    7.120       50
    7.135       67
    7.150       77
    7.165       80
    7.180       98
    7.195       89
    7.210      114
    7.225       89
    7.240       71
    7.255       60
    7.270       37
    7.285       45
    7.300       29
    7.315       27
    7.330       41
    7.345       37
    7.360       44
    7.375       41
    7.390       30
    7.405       37
    7.420       44
    7.435       42
    7.450       41
    7.465       42
    7.480       42
    7.495       50
    7.510       39
    7.525       46
    7.540       44
    7.555       35
    7.570       51
    7.585       34
    7.600       40
    7.615       54
    7.630       40
    7.645       38
    7.660       44
    7.675       51
    7.690       39
    7.705       39
    7.720       34
    7.735       38
    7.750       39
    7.765       27
    7.780       36
    7.795       40
    7.810       39
    7.825       37
    7.840       35
    7.855       35
    7.870       37
    7.885       42
    7.900       34
    7.915       41
    7.930       39
    7.945       45
    7.960       32
    7.975       36
    7.990       48
    8.005       43
    8.020       37
    8.035       32
    8.050       34
    8.065       40
    8.080       35
    8.095       46
    8.110       38
    8.125       36
    8.140       40
    8.155       42
    8.170       43
    8.185       42
    8.200       42
    8.215       42
    8.230       44
    8.245       42
    8.260       54
    8.275       49
    8.290       52
    8.305       48
    8.320       45
    8.335       37
    8.350       35
    8.365       32
    8.380       44
    8.395       50
    8.410       57
    8.425       41
    8.440       34
    8.455       40
    8.470       46
    8.485       44
    8.500       48
    8.515       49
    8.530       36
    8.545       47
    8.560       48
    8.575       45
    8.590       41
    8.605       53
    8.620       43
    8.635       43
    8.650       46
    8.665       40
    8.680       43
    8.695       40
    8.710       44
    8.725       46
    8.740       45
    8.755       43
    8.770       45
    8.785       47
    8.800       44
    8.815       46
    8.830       43
    8.845       50
    8.860       40
    8.875       51
    8.890       46
    8.905       44
    8.920       40
    8.935       48
    8.950       42
    8.965       40
    8.980       52
    8.995       51
    9.010       47
    9.025       38
    9.040       46
    9.055       42
    9.070       34
    9.085       52
    9.100       41
    9.115       33
    9.130       51
    9.145       44
    9.160       43
    9.175       45
    9.190       33
    9.205       42
    9.220       42
    9.235       38
    9.250       38
    9.265       36
    9.280       39
    9.295       44
    9.310       35
    9.325       38
    9.340       33
    9.355       44
    9.370       39
    9.385       38
    9.400       39
    9.415       36
    9.430       38
    9.445       42
    9.460       34
    9.475       41
    9.490       48
    9.505       45
    9.520       46
    9.535       33
    9.550       41
    9.565       42
    9.580       42
    9.595       44
    9.610       36
    9.625       34
    9.640       44
    9.655       45
    9.670       46
    9.685       41
    9.700       47
    9.715       40
    9.730       52
    9.745       49
    9.760       38
    9.775       43
    9.790       51
    9.805       47
    9.820       48
    9.835       52
    9.850       46
    9.865       47
    9.880       39
    9.895       49
    9.910       46
    9.925       44
    9.940       43
    9.955       29
    9.970       43
    9.985       46
   10.000       42
   10.015       42
   10.030       41
   10.045       49
   10.060       39
   10.075       37
   10.090       39
   10.105       40
   10.120       58
   10.135       53
   10.150       54
   10.165       48
   10.180       54
   10.195       50
   10.210       43
   10.225       39
   10.240       48
   10.255       49
   10.270       40
   10.285       50
   10.300       61
   10.315       55
   10.330       40
   10.345       60
   10.360       56
   10.375       55
   10.390       57
   10.405       49
   10.420       57
   10.435       60
   10.450       67
   10.465       78
   10.480       80
   10.495       81
   10.510       94
   10.525       88
   10.540       68
   10.555       52
   10.570       37
   10.585       40
   10.600       51
   10.615       53
   10.630       54
   10.645       45
   10.660       48
   10.675       48
   10.690       55
   10.705       69
   10.720       82
   10.735       92
   10.750       89
   10.765      101
   10.780      103
   10.795      110
   10.810      119
   10.825      136
   10.840      131
   10.855      151
   10.870      189
   10.885      230
   10.900      235
   10.915      204
   10.930      165
   10.945      117
   10.960       73
   10.975       63
   10.990       58
   11.005       45
   11.020       38
   11.035       40
   11.050       46
   11.065       48
   11.080       51
   11.095       49
   11.110       42
   11.125       45
   11.140       56
   11.155       46
   11.170       50
   11.185       51
   11.200       53
   11.215       50
   11.230       54
   11.245       73
   11.260       85
   11.275       86
   11.290       81
   11.305       68
   11.320       50
   11.335       53
   11.350       52
   11.365       47
   11.380       42
   11.395       53
   11.410       46
   11.425       52
   11.440       66
   11.455       60
   11.470       59
   11.485       55
   11.500       56
   11.515       45
   11.530       46
   11.545       53
   11.560       39
   11.575       40
   11.590       46
   11.605       48
   11.620       45
   11.635       42
   11.650       50
   11.665       51
   11.680       34
   11.695       55
   11.710       55
   11.725       58
   11.740       47
   11.755       49
   11.770       42
   11.785       65
   11.800       57
   11.815       65
   11.830       82
   11.845       79
   11.860       69
   11.875       72
   11.890       64
   11.905       73
   11.920       74
   11.935       63
   11.950       68
   11.965       54
   11.980       48
   11.995       59
   12.010       59
   12.025       63
   12.040       62
   12.055       66
   12.070       58
   12.085       49
   12.100       47
   12.115       66
   12.130       65
   12.145       54
   12.160       46
   12.175       51
   12.190       44
   12.205       48
   12.220       47
   12.235       38
   12.250       42
   12.265       49
   12.280       35
   12.295       35
   12.310       49
   12.325       41
   12.340       33
   12.355       38
   12.370       40
   12.385       38
   12.400       44
   12.415       49
   12.430       48
   12.445       45
   12.460       43
   12.475       42
   12.490       42
   12.505       33
   12.520       48
   12.535       46
   12.550       63
   12.565       64
   12.580       54
   12.595       66
   12.610       79
   12.625       89
   12.640      109
   12.655      128
   12.670      150
   12.685      175
   12.700      240
   12.715      237
   12.730      258
   12.745      248
   12.760      210
   12.775      206
   12.790      195
   12.805      190
   12.820      154
   12.835      127
   12.850       84
   12.865       66
   12.880       68
   12.895       54
   12.910       54
   12.925       56
   12.940       64
   12.955       81
   12.970       83
   12.985       79
   13.000       82
   13.015       90
   13.030      107
   13.045      112
   13.060      132
   13.075      193
   13.090      238
   13.105      242
   13.120      208
   13.135      181
   13.150      159
   13.165      141
   13.180      176
   13.195      199
   13.210      235
   13.225      276
   13.240      306
   13.255      336
   13.270      407
   13.285      538
   13.300      599
   13.315      503
   13.330      423
   13.345      462
   13.360      507
   13.375      612
   13.390      834
   13.405      942
   13.420      800
   13.435      496
   13.450      270
   13.465      142
   13.480      102
   13.495       95
   13.510      103
   13.525      107
   13.540      116
   13.555      126
   13.570      139
   13.585      170
   13.600      199
   13.615      225
   13.630      274
   13.645      268
   13.660      290
   13.675      290
   13.690      249
   13.705      192
   13.720      104
   13.735       73
   13.750       75
   13.765       64
   13.780       68
   13.795       57
   13.810       58
   13.825       57
   13.840       64
   13.855       58
   13.870       63
   13.885       69
   13.900       59
   13.915       68
   13.930       87
   13.945       71
   13.960       46
   13.975       48
   13.990       52
   14.005       51
   14.020       47
   14.035       49
   14.050       47
   14.065       45
   14.080       41
   14.095       53
   14.110       54
   14.125       46
   14.140       48
   14.155       51
   14.170       53
   14.185       46
   14.200       56
   14.215       69
   14.230       68
   14.245       76
   14.260       87
   14.275       82
   14.290      103
   14.305      140
   14.320      148
   14.335      179
   14.350      192
   14.365      195
   14.380      206
   14.395      172
   14.410      142
   14.425      155
   14.440      145
   14.455      151
   14.470      179
   14.485      165
   14.500      146
   14.515      129
   14.530      153
   14.545      198
   14.560      215
   14.575      258
   14.590      296
   14.605      288
   14.620      230
   14.635      151
   14.650       80
   14.665       60
   14.680       49
   14.695       51
   14.710       59
   14.725       52
   14.740       48
   14.755       47
   14.770       46
   14.785       40
   14.800       41
   14.815       39
   14.830       44
   14.845       60
   14.860       47
   14.875       53
   14.890       57
   14.905       56
   14.920       60
   14.935       55
   14.950       61
   14.965       61
   14.980       75
   14.995       90
   15.010      104
   15.025      120
   15.040      148
   15.055      191
   15.070      233
   15.085      266
   15.100      295
   15.115      372
   15.130      407
   15.145      497
   15.160      590
   15.175      733
   15.190      768
   15.205      585
   15.220      409
   15.235      269
   15.250      182
   15.265      162
   15.280      153
   15.295      151
   15.310      130
   15.325      122
   15.340      124
   15.355      125
   15.370      163
   15.385      184
   15.400      194
   15.415      205
   15.430      191
   15.445      170
   15.460      162
   15.475      130
   15.490      124
   15.505      118
   15.520      118
   15.535      106
   15.550      116
   15.565      135
   15.580      137
   15.595      185
   15.610      235
   15.625      253
   15.640      283
   15.655      345
   15.670      325
   15.685      363
   15.700      321
   15.715      253
   15.730      203
   15.745      144
   15.760      151
   15.775      168
   15.790      181
   15.805      185
   15.820      181
   15.835      171
   15.850      203
   15.865      267
   15.880      252
   15.895      185
   15.910      148
   15.925      112
   15.940       74
   15.955       67
   15.970       61
   15.985       63
   16.000       63
   16.015       64
   16.030       70
   16.045       59
   16.060       72
   16.075       66
   16.090       80
   16.105       96
   16.120       84
   16.135      135
   16.150      165
   16.165      167
   16.180      210
   16.195      267
   16.210      271
   16.225      262
   16.240      269
   16.255      268
   16.270      210
   16.285      152
   16.300       96
   16.315       94
   16.330       85
   16.345       74
   16.360       85
   16.375      114
   16.390      112
   16.405      135
   16.420      142
   16.435      140
   16.450      160
   16.465      189
   16.480      234
   16.495      286
   16.510      387
   16.525      470
   16.540      445
   16.555      381
   16.570      323
   16.585      252
   16.600      249
   16.615      289
   16.630      338
   16.645      345
   16.660      296
   16.675      217
   16.690      232
   16.705      237
   16.720      238
   16.735      216
   16.750      220
   16.765      217
   16.780      259
   16.795      255
   16.810      277
   16.825      278
   16.840      257
   16.855      297
   16.870      300
   16.885      272
   16.900      266
   16.915      226
   16.930      184
   16.945      119
   16.960       99
   16.975       93
   16.990       80
   17.005       93
   17.020       99
   17.035      114
   17.050      122
   17.065      144
   17.080      174
   17.095      248
   17.110      266
   17.125      264
   17.140      248
   17.155      202
   17.170      166
   17.185      163
   17.200      142
   17.215      162
   17.230      188
   17.245      224
   17.260      269
   17.275      319
   17.290      375
   17.305      388
   17.320      370
   17.335      375
   17.350      307
   17.365      206
   17.380      146
   17.395      127
   17.410      115
   17.425      114
   17.440      117
   17.455      116
   17.470      103
   17.485       89
   17.500       91
   17.515      115
   17.530      123
   17.545      147
   17.560      196
   17.575      227
   17.590      233
   17.605      229
   17.620      171
   17.635      127
   17.650       88
   17.665       74
   17.680       87
   17.695       69
   17.710       91
   17.725       91
   17.740       97
   17.755      115
   17.770      111
   17.785      122
   17.800      102
   17.815       80
   17.830       84
   17.845       87
   17.860      113
   17.875       98
   17.890      120
   17.905       89
   17.920       81
   17.935       75
   17.950       86
   17.965       81
   17.980       70
   17.995       66
   18.010       63
   18.025       63
   18.040       54
   18.055       62
   18.070       55
   18.085       60
   18.100       44
   18.115       54
   18.130       58
   18.145       58
   18.160       54
   18.175       47
   18.190       42
   18.205       52
   18.220       45
   18.235       58
   18.250       71
   18.265       75
   18.280       68
   18.295       79
   18.310       95
   18.325      103
   18.340      137
   18.355      168
   18.370      184
   18.385      201
   18.400      227
   18.415      224
   18.430      177
   18.445      149
   18.460      117
   18.475       78
   18.490       87
   18.505       65
   18.520       65
   18.535       60
   18.550       48
   18.565       70
   18.580       75
   18.595       65
   18.610       74
   18.625       81
   18.640       98
   18.655      120
   18.670      135
   18.685      140
   18.700      138
   18.715      134
   18.730      113
   18.745      127
   18.760      148
   18.775      161
   18.790      142
   18.805      107
   18.820      108
   18.835       87
   18.850       74
   18.865       63
   18.880       62
   18.895       53
   18.910       72
   18.925       61
   18.940       64
   18.955       75
   18.970       86
   18.985       92
   19.000      102
   19.015       95
   19.030       80
   19.045       86
   19.060       95
   19.075       91
   19.090       92
   19.105       90
   19.120       83
   19.135       57
   19.150       61
   19.165       69
   19.180       55
   19.195       52
   19.210       56
   19.225       48
   19.240       56
   19.255       38
   19.270       53
   19.285       56
   19.300       58
   19.315       51
   19.330       50
   19.345       49
   19.360       48
   19.375       38
   19.390       52
   19.405       48
   19.420       43
   19.435       46
   19.450       51
   19.465       55
   19.480       72
   19.495       73
   19.510       58
   19.525       81
   19.540       97
   19.555      110
   19.570      113
   19.585      113
   19.600       99
   19.615       94
   19.630       90
   19.645       78
   19.660      102
   19.675      120
   19.690      117
   19.705      125
   19.720      132
   19.735      158
   19.750      160
   19.765      144
   19.780      113
   19.795       92
   19.810       90
   19.825       91
   19.840       79
   19.855       87
   19.870       88
   19.885      104
   19.900      106
   19.915      148
   19.930      211
   19.945      241
   19.960      260
   19.975      365
   19.990      455
   20.005      523
   20.020      492
   20.035      415
   20.050      346
   20.065      281
   20.080      239
   20.095      239
   20.110      257
   20.125      270
   20.140      274
   20.155      255
   20.170      229
   20.185      169
   20.200      117
   20.215       92
   20.230       71
   20.245       74
   20.260       73
   20.275       67
   20.290       73
   20.305       63
   20.320       73
   20.335       85
   20.350       79
   20.365       88
   20.380       72
   20.395       69
   20.410       51
   20.425       61
   20.440       66
   20.455       66
   20.470       59
   20.485       55
   20.500       36
   20.515       42
   20.530       51
   20.545       64
   20.560       62
   20.575       46
   20.590       60
   20.605       54
   20.620       62
   20.635       58
   20.650       79
   20.665       85
   20.680       76
   20.695       73
   20.710       72
   20.725       69
   20.740       68
   20.755       54
   20.770       66
   20.785       66
   20.800       94
   20.815       97
   20.830       98
   20.845      107
   20.860      144
   20.875      142
   20.890      127
   20.905      133
   20.920      127
   20.935      126
   20.950      110
   20.965      115
   20.980      151
   20.995      183
   21.010      134
   21.025       92
   21.040       91
   21.055       63
   21.070       53
   21.085       62
   21.100       59
   21.115       60
   21.130       67
   21.145       55
   21.160       61
   21.175       63
   21.190       63
   21.205       57
   21.220       55
   21.235       52
   21.250       65
   21.265       53
   21.280       59
   21.295       58
   21.310       81
   21.325       91
   21.340       87
   21.355       92
   21.370       88
   21.385       82
   21.400       81
   21.415       65
   21.430       67
   21.445       67
   21.460       55
   21.475       66
   21.490       45
   21.505       53
   21.520       47
   21.535       44
   21.550       43
   21.565       44
   21.580       41
   21.595       47
   21.610       53
   21.625       63
   21.640       82
   21.655       80
   21.670       93
   21.685      120
   21.700      153
   21.715      181
   21.730      172
   21.745      162
   21.760      151
   21.775      125
   21.790      130
   21.805      112
   21.820      122
   21.835      179
   21.850      193
   21.865      273
   21.880      321
   21.895      442
   21.910      467
   21.925      404
   21.940      263
   21.955      201
   21.970      153
   21.985      127
   22.000      125
   22.015      101
   22.030       68
   22.045       79
   22.060       87
   22.075       68
   22.090       66
   22.105       63
   22.120       57
   22.135       58
   22.150       49
   22.165       54
   22.180       50
   22.195       39
   22.210       43
   22.225       57
   22.240       61
   22.255       48
   22.270       55
   22.285       47
   22.300       55
   22.315       55
   22.330       49
   22.345       53
   22.360       55
   22.375       55
   22.390       62
   22.405       72
   22.420       71
   22.435       76
   22.450       77
   22.465       67
   22.480       75
   22.495      101
   22.510      101
   22.525      103
   22.540       80
   22.555       72
   22.570       71
   22.585       57
   22.600       69
   22.615       76
   22.630       74
   22.645       67
   22.660       71
   22.675      101
   22.690      111
   22.705      109
   22.720       94
   22.735      105
   22.750      138
   22.765      142
   22.780      129
   22.795      110
   22.810       99
   22.825       89
   22.840       79
   22.855       87
   22.870      107
   22.885      118
   22.900      153
   22.915      164
   22.930      158
   22.945      140
   22.960      139
   22.975      134
   22.990      119
   23.005      103
   23.020      102
   23.035       89
   23.050       73
   23.065       66
   23.080       49
   23.095       50
   23.110       56
   23.125       56
   23.140       61
   23.155       69
   23.170       68
   23.185       87
   23.200       91
   23.215       79
   23.230       70
   23.245       68
   23.260       74
   23.275       84
   23.290       97
   23.305      110
   23.320      106
   23.335       97
   23.350       90
   23.365       58
   23.380       54
   23.395       53
   23.410       58
   23.425       59
   23.440       53
   23.455       43
   23.470       58
   23.485       55
   23.500       68
   23.515       65
   23.530       53
   23.545       54
   23.560       65
   23.575       57
   23.590       47
   23.605       57
   23.620       54
   23.635       51
   23.650       49
   23.665       53
   23.680       49
   23.695       56
   23.710       50
   23.725       46
   23.740       60
   23.755       52
   23.770       73
   23.785       78
   23.800       88
   23.815       75
   23.830       58
   23.845       49
   23.860       51
   23.875       54
   23.890       53
   23.905       65
   23.920       71
   23.935       56
   23.950       57
   23.965       63
   23.980       55
   23.995       64
   24.010       76
   24.025       65
   24.040       67
   24.055       70
   24.070       78
   24.085       94
   24.100       96
   24.115      100
   24.130       92
   24.145       69
   24.160       65
   24.175       55
   24.190       50
   24.205       53
   24.220       51
   24.235       55
   24.250       41
   24.265       46
   24.280       58
   24.295       51
   24.310       48
   24.325       67
   24.340       73
   24.355       77
   24.370       80
   24.385       88
   24.400       59
   24.415       56
   24.430       48
   24.445       45
   24.460       41
   24.475       37
   24.490       40
   24.505       41
   24.520       46
   24.535       47
   24.550       52
   24.565       54
   24.580       49
   24.595       53
   24.610       66
   24.625       51
   24.640       58
   24.655       76
   24.670       82
   24.685       90
   24.700       84
   24.715       88
   24.730       88
   24.745       85
   24.760       99
   24.775       88
   24.790       74
   24.805       63
   24.820       67
   24.835       74
   24.850       76
   24.865       79
   24.880       67
   24.895       56
   24.910       62
   24.925       46
   24.940       54
   24.955       59
   24.970       62
   24.985       54
   25.000       59
   25.015       63
   25.030       73
   25.045       78
   25.060       95
   25.075      100
   25.090      101
   25.105       99
   25.120      105
   25.135       99
   25.150       67
   25.165       69
   25.180       70
   25.195       72
   25.210       63
   25.225       53
   25.240       52
   25.255       71
   25.270       74
   25.285       75
   25.300       86
   25.315       86
   25.330       79
   25.345       58
   25.360       69
   25.375       55
   25.390       49
   25.405       66
   25.420       49
   25.435       50
   25.450       61
   25.465       69
   25.480       73
   25.495       96
   25.510      106
   25.525       96
   25.540       82
   25.555       81
   25.570       77
   25.585       63
   25.600       49
   25.615       75
   25.630       56
   25.645       61
   25.660       55
   25.675       57
   25.690       77
   25.705       77
   25.720       82
   25.735       92
   25.750      127
   25.765      116
   25.780      148
   25.795      162
   25.810      133
   25.825      141
   25.840      119
   25.855      101
   25.870       95
   25.885       87
   25.900       89
   25.915       87
   25.930      104
   25.945      103
   25.960      116
   25.975      121
   25.990      135
   26.005      140
   26.020      140
   26.035      119
   26.050       83
   26.065       67
   26.080       57
   26.095       71
   26.110       64
   26.125       67
   26.140       64
   26.155       65
   26.170       63
   26.185       71
   26.200       70
   26.215       71
   26.230       79
   26.245       77
   26.260       70
   26.275      102
   26.290       97
   26.305       97
   26.320      111
   26.335      113
   26.350       95
   26.365       77
   26.380       70
   26.395       66
   26.410       63
   26.425       63
   26.440       60
   26.455       59
   26.470       81
   26.485       80
   26.500       71
   26.515       63
   26.530       65
   26.545       61
   26.560       58
   26.575       60
   26.590       52
   26.605       58
   26.620       73
   26.635       66
   26.650       53
   26.665       65
   26.680       57
   26.695       72
   26.710       56
   26.725       62
   26.740       66
   26.755       69
   26.770       90
   26.785       87
   26.800       72
   26.815       78
   26.830       72
   26.845       53
   26.860       49
   26.875       55
   26.890       66
   26.905       65
   26.920       61
   26.935       63
   26.950       60
   26.965       85
   26.980      119
   26.995      129
   27.010      129
   27.025      138
   27.040      119
   27.055      115
   27.070      135
   27.085      135
   27.100      136
   27.115      105
   27.130      112
   27.145       84
   27.160       79
   27.175       81
   27.190       67
   27.205       61
   27.220       67
   27.235       59
   27.250       53
   27.265       56
   27.280       63
   27.295       62
   27.310       67
   27.325       78
   27.340       60
   27.355       67
   27.370       71
   27.385       85
   27.400       75
   27.415       63
   27.430       65
   27.445       67
   27.460       63
   27.475       80
   27.490       81
   27.505       74
   27.520       79
   27.535       87
   27.550       91
   27.565       96
   27.580       86
   27.595       83
   27.610      109
   27.625      112
   27.640      120
   27.655      134
   27.670      134
   27.685      156
   27.700      174
   27.715      163
   27.730      191
   27.745      206
   27.760      182
   27.775      142
   27.790      132
   27.805      124
   27.820      111
   27.835       82
   27.850       64
   27.865       70
   27.880       67
   27.895       59
   27.910       60
   27.925       83
   27.940      102
   27.955       92
   27.970       93
   27.985      111
   28.000      124
   28.015      117
   28.030      108
   28.045       85
   28.060      114
   28.075       92
   28.090       85
   28.105       83
   28.120       82
   28.135       81
   28.150       91
   28.165       74
   28.180       71
   28.195       72
   28.210       67
   28.225       75
   28.240       84
   28.255       74
   28.270       74
   28.285       70
   28.300       59
   28.315       73
   28.330       77
   28.345       67
   28.360       78
   28.375       76
   28.390       81
   28.405       78
   28.420       71
   28.435       93
   28.450      101
   28.465       83
   28.480      100
   28.495      102
   28.510      110
   28.525      107
   28.540      109
   28.555      102
   28.570       93
   28.585       85
   28.600       61
   28.615       62
   28.630       59
   28.645       60
   28.660       62
   28.675       56
   28.690       43
   28.705       46
   28.720       52
   28.735       59
   28.750       67
   28.765       73
   28.780       78
   28.795       75
   28.810       67
   28.825       66
   28.840       68
   28.855       63
   28.870       70
   28.885       67
   28.900       62
   28.915       62
   28.930       66
   28.945       66
   28.960       80
   28.975       83
   28.990       87
   29.005       91
   29.020       96
   29.035       83
   29.050       81
   29.065       93
   29.080       89
   29.095       83
   29.110       79
   29.125       77
   29.140       88
   29.155      112
   29.170      109
   29.185      109
   29.200      114
   29.215       99
   29.230       88
   29.245       88
   29.260       77
   29.275       77
   29.290       81
   29.305       69
   29.320       66
   29.335       71
   29.350       83
   29.365       72
   29.380       75
   29.395       80
   29.410       84
   29.425       70
   29.440       68
   29.455       58
   29.470       62
   29.485       69
   29.500       61
   29.515       51
   29.530       56
   29.545       61
   29.560       70
   29.575       62
   29.590       71
   29.605       76
   29.620       67
   29.635       77
   29.650       89
   29.665       84
   29.680      100
   29.695      111
   29.710       92
   29.725       88
   29.740       93
   29.755       97
   29.770       86
   29.785      110
   29.800      107
   29.815      104
   29.830      119
   29.845      110
   29.860       97
   29.875       90
   29.890       68
   29.905       82
   29.920       85
   29.935       74
   29.950       59
   29.965       68
   29.980       58
   29.995       54
   30.010       52
   30.025       45
   30.040       41
   30.055       53
   30.070       59
   30.085       56
   30.100       45
   30.115       42
   30.130       54
   30.145       51
   30.160       46
   30.175       60
   30.190       51
   30.205       56
   30.220       53
   30.235       56
   30.250       61
   30.265       43
   30.280       46
   30.295       46
   30.310       64
   30.325       57
   30.340       54
   30.355       62
   30.370       67
   30.385       52
   30.400       64
   30.415       60
   30.430       48
   30.445       55
   30.460       53
   30.475       53
   30.490       55
   30.505       52
   30.520       71
   30.535       70
   30.550       69
   30.565       77
   30.580       58
   30.595       64
   30.610       85
   30.625       83
   30.640       77
   30.655       88
   30.670       91
   30.685       98
   30.700       99
   30.715       96
   30.730       92
   30.745       76
   30.760       74
   30.775       87
   30.790       85
   30.805       81
   30.820       96
   30.835       80
   30.850       79
   30.865       78
   30.880       65
   30.895       64
   30.910       53
   30.925       61
   30.940       53
   30.955       51
   30.970       51
   30.985       52
   31.000       59
   31.015       60
   31.030       74
   31.045       75
   31.060       73
   31.075       87
   31.090       78
   31.105       83
   31.120       84
   31.135       92
   31.150       92
   31.165       96
   31.180       83
   31.195       71
   31.210       70
   31.225       60
   31.240       64
   31.255       56
   31.270       69
   31.285       64
   31.300       70
   31.315       67
   31.330       62
   31.345       66
   31.360       70
   31.375       70
   31.390       73
   31.405       89
   31.420       75
   31.435       79
   31.450       89
   31.465       74
   31.480       84
   31.495       88
   31.510       70
   31.525       81
   31.540       75
   31.555       65
   31.570       63
   31.585       66
   31.600       66
   31.615       78
   31.630       67
   31.645       67
   31.660       88
   31.675       89
   31.690       93
   31.705       94
   31.720       98
   31.735       83
   31.750       92
   31.765       71
   31.780       67
   31.795       61
   31.810       73
   31.825       75
   31.840       83
   31.855       94
   31.870      107
   31.885      111
   31.900       93
   31.915       89
   31.930      103
   31.945       95
   31.960       86
   31.975       76
   31.990       75
   32.005       88
   32.020       95
   32.035      102
   32.050       90
   32.065       75
   32.080       84
   32.095       79
   32.110       79
   32.125       87
   32.140       86
   32.155       86
   32.170       72
   32.185       64
   32.200       60
   32.215       74
   32.230       77
   32.245       80
   32.260       79
   32.275       75
   32.290       85
   32.305       72
   32.320       72
   32.335       72
   32.350       61
   32.365       57
   32.380       53
   32.395       55
   32.410       60
   32.425       57
   32.440       58
   32.455       62
   32.470       55
   32.485       63
   32.500       64
   32.515       58
   32.530       65
   32.545       74
   32.560       77
   32.575       65
   32.590       69
   32.605       64
   32.620       54
   32.635       58
   32.650       51
   32.665       43
   32.680       48
   32.695       46
   32.710       48
   32.725       45
   32.740       44
   32.755       44
   32.770       52
   32.785       60
   32.800       51
   32.815       49
   32.830       52
   32.845       51
   32.860       55
   32.875       49
   32.890       49
   32.905       55
   32.920       69
   32.935       54
   32.950       47
   32.965       56
   32.980       58
   32.995       56
   33.010       64
   33.025       63
   33.040       81
   33.055       92
   33.070       84
   33.085       85
   33.100       80
   33.115       65
   33.130       82
   33.145       76
   33.160       77
   33.175       62
   33.190       54
   33.205       58
   33.220       69
   33.235       69
   33.250       54
   33.265       72
   33.280       56
   33.295       62
   33.310       57
   33.325       59
   33.340       60
   33.355       60
   33.370       58
   33.385       63
   33.400       54
   33.415       61
   33.430       51
   33.445       43
   33.460       66
   33.475       62
   33.490       62
   33.505       58
   33.520       65
   33.535       73
   33.550       66
   33.565       66
   33.580       85
   33.595       82
   33.610       88
   33.625       87
   33.640       98
   33.655      122
   33.670      111
   33.685      101
   33.700       90
   33.715      103
   33.730       83
   33.745       89
   33.760       76
   33.775       84
   33.790       77
   33.805       91
   33.820       72
   33.835       85
   33.850       69
   33.865       67
   33.880       79
   33.895       76
   33.910       87
   33.925       94
   33.940       89
   33.955       87
   33.970       89
   33.985       85
   34.000       71
   34.015       86
   34.030       65
   34.045       66
   34.060       56
   34.075       58
   34.090       72
   34.105       72
   34.120       65
   34.135       71
   34.150       82
   34.165       75
   34.180       69
   34.195       88
   34.210       68
   34.225       80
   34.240       77
   34.255       88
   34.270       85
   34.285       59
   34.300       57
   34.315       56
   34.330       58
   34.345       65
   34.360       57
   34.375       56
   34.390       58
   34.405       60
   34.420       53
   34.435       54
   34.450       55
   34.465       49
   34.480       36
   34.495       46
   34.510       61
   34.525       57
   34.540       64
   34.555       60
   34.570       55
   34.585       59
   34.600       66
   34.615       70
   34.630       69
   34.645       74
   34.660       85
   34.675       75
   34.690       72
   34.705       68
   34.720       61
   34.735       55
   34.750       55
   34.765       51
   34.780       55
   34.795       45
   34.810       48
   34.825       46
   34.840       58
   34.855       44
   34.870       55
   34.885       50
   34.900       49
   34.915       53
   34.930       64
   34.945       62
   34.960       66
   34.975       62
   34.990       56
   35.005       57
   35.020       54
   35.035       60
   35.050       52
   35.065       59
   35.080       55
   35.095       58
   35.110       54
   35.125       57
   35.140       58
   35.155       57
   35.170       56
   35.185       50
   35.200       63
   35.215       64
   35.230       73
   35.245       72
   35.260       60
   35.275       68
   35.290       60
   35.305       62
   35.320       73
   35.335       71
   35.350       62
   35.365       64
   35.380       67
   35.395       69
   35.410       77
   35.425       66
   35.440       55
   35.455       72
   35.470       56
   35.485       77
   35.500       83
   35.515       71
   35.530       66
   35.545       77
   35.560       78
   35.575       80
   35.590       89
   35.605       90
   35.620       96
   35.635       73
   35.650       78
   35.665       85
   35.680       87
   35.695       79
   35.710       84
   35.725       84
   35.740       71
   35.755       82
   35.770       99
   35.785       91
   35.800       85
   35.815       79
   35.830       74
   35.845       62
   35.860       72
   35.875       74
   35.890       62
   35.905       69
   35.920       63
   35.935       68
   35.950       56
   35.965       59
   35.980       58
   35.995       58
   36.010       56
   36.025       60
   36.040       70
   36.055       61
   36.070       56
   36.085       48
   36.100       52
   36.115       50
   36.130       51
   36.145       54
   36.160       54
   36.175       53
   36.190       57
   36.205       44
   36.220       51
   36.235       47
   36.250       51
   36.265       49
   36.280       52
   36.295       42
   36.310       42
   36.325       50
   36.340       57
   36.355       60
   36.370       51
   36.385       58
   36.400       63
   36.415       52
   36.430       53
   36.445       65
   36.460       75
   36.475       64
   36.490       63
   36.505       59
   36.520       59
   36.535       67
   36.550       71
   36.565       55
   36.580       47
   36.595       47
   36.610       48
   36.625       42
   36.640       53
   36.655       54
   36.670       48
   36.685       56
   36.700       58
   36.715       49
   36.730       59
   36.745       55
   36.760       61
   36.775       63
   36.790       55
   36.805       61
   36.820       54
   36.835       54
   36.850       40
   36.865       52
   36.880       58
   36.895       61
   36.910       63
   36.925       71
   36.940       69
   36.955       65
   36.970       67
   36.985       68
   37.000       73
   37.015       61
   37.030       75
   37.045       73
   37.060       64
   37.075       66
   37.090       51
   37.105       61
   37.120       56
   37.135       61
   37.150       61
   37.165       51
   37.180       57
   37.195       45
   37.210       58
   37.225       66
   37.240       66
   37.255       61
   37.270       57
   37.285       61
   37.300       66
   37.315       63
   37.330       51
   37.345       61
   37.360       62
   37.375       69
   37.390       67
   37.405       67
   37.420       74
   37.435       73
   37.450       68
   37.465       70
   37.480       60
   37.495       55
   37.510       52
   37.525       54
   37.540       50
   37.555       49
   37.570       46
   37.585       53
   37.600       51
   37.615       51
   37.630       56
   37.645       59
   37.660       50
   37.675       47
   37.690       48
   37.705       55
   37.720       44
   37.735       47
   37.750       43
   37.765       50
   37.780       58
   37.795       59
   37.810       53
   37.825       50
   37.840       54
   37.855       56
   37.870       60
   37.885       55
   37.900       57
   37.915       44
   37.930       55
   37.945       52
   37.960       49
   37.975       48
   37.990       45
   38.005       59
   38.020       62
   38.035       50
   38.050       44
   38.065       54
   38.080       58
   38.095       50
   38.110       56
   38.125       53
   38.140       63
   38.155       59
   38.170       64
   38.185       66
   38.200       65
   38.215       51
   38.230       48
   38.245       52
   38.260       61
   38.275       55
   38.290       56
   38.305       56
   38.320       53
   38.335       52
   38.350       44
   38.365       45
   38.380       59
   38.395       54
   38.410       46
   38.425       53
   38.440       61
   38.455       58
   38.470       60
   38.485       63
   38.500       61
   38.515       74
   38.530       83
   38.545       68
   38.560       76
   38.575       68
   38.590       66
   38.605       51
   38.620       49
   38.635       48
   38.650       55
   38.665       42
   38.680       54
   38.695       53
   38.710       47
   38.725       53
   38.740       54
   38.755       47
   38.770       55
   38.785       63
   38.800       57
   38.815       55
   38.830       51
   38.845       83
   38.860       63
   38.875       52
   38.890       56
   38.905       46
   38.920       57
   38.935       51
   38.950       43
   38.965       49
   38.980       55
   38.995       44
   39.010       61
   39.025       58
   39.040       64
   39.055       65
   39.070       59
   39.085       62
   39.100       60
   39.115       66
   39.130       54
   39.145       58
   39.160       48
   39.175       66
   39.190       56
   39.205       56
   39.220       51
   39.235       54
   39.250       59
   39.265       48
   39.280       52
   39.295       51
   39.310       60
   39.325       58
   39.340       50
   39.355       55
   39.370       45
   39.385       46
   39.400       44
   39.415       45
   39.430       49
   39.445       59
   39.460       55
   39.475       47
   39.490       43
   39.505       44
   39.520       47
   39.535       50
   39.550       45
   39.565       55
   39.580       40
   39.595       41
   39.610       47
   39.625       52
   39.640       41
   39.655       47
   39.670       45
   39.685       47
   39.700       45
   39.715       47
   39.730       47
   39.745       41
   39.760       40
   39.775       45
   39.790       36
   39.805       39
   39.820       57
   39.835       48
   39.850       48
   39.865       55
   39.880       58
   39.895       66
   39.910       47
   39.925       46
   39.940       62
   39.955       59
   39.970       59
   39.985       56
   40.000       55
   40.015       52
   40.030       64
   40.045       58
   40.060       67
   40.075       62
   40.090       60
   40.105       60
   40.120       54
   40.135       60
   40.150       52
   40.165       45
   40.180       57
   40.195       48
   40.210       44
   40.225       54
   40.240       55
   40.255       60
   40.270       57
   40.285       54
   40.300       45
   40.315       39
   40.330       39
   40.345       50
   40.360       61
   40.375       64
   40.390       64
   40.405       43
   40.420       48
   40.435       45
   40.450       48
   40.465       51
   40.480       52
   40.495       57
   40.510       51
   40.525       49
   40.540       57
   40.555       61
   40.570       63
   40.585       52
   40.600       51
   40.615       45
   40.630       58
   40.645       64
   40.660       55
   40.675       56
   40.690       60
   40.705       53
   40.720       43
   40.735       50
   40.750       51
   40.765       54
   40.780       52
   40.795       55
   40.810       50
   40.825       51
   40.840       48
   40.855       58
   40.870       61
   40.885       53
   40.900       54
   40.915       53
   40.930       63
   40.945       53
   40.960       58
   40.975       58
   40.990       59
   41.005       58
   41.020       54
   41.035       53
   41.050       54
   41.065       53
   41.080       50
   41.095       49
   41.110       43
   41.125       47
   41.140       43
   41.155       50
   41.170       48
   41.185       47
   41.200       40
   41.215       43
   41.230       45
   41.245       47
   41.260       40
   41.275       40
   41.290       45
   41.305       54
   41.320       47
   41.335       40
   41.350       44
   41.365       56
   41.380       58
   41.395       51
   41.410       54
   41.425       49
   41.440       32
   41.455       43
   41.470       43
   41.485       43
   41.500       49
   41.515       56
   41.530       46
   41.545       49
   41.560       40
   41.575       44
   41.590       41
   41.605       38
   41.620       45
   41.635       58
   41.650       56
   41.665       47
   41.680       51
   41.695       49
   41.710       38
   41.725       41
   41.740       50
   41.755       44
   41.770       39
   41.785       43
   41.800       41
   41.815       46
   41.830       46
   41.845       43
   41.860       51
   41.875       34
   41.890       38
   41.905       50
   41.920       48
   41.935       47
   41.950       56
   41.965       56
   41.980       49
   41.995       49
   42.010       45
   42.025       57
   42.040       53
   42.055       53
   42.070       54
   42.085       49
   42.100       52
   42.115       56
   42.130       43
   42.145       40
   42.160       43
   42.175       41
   42.190       49
   42.205       56
   42.220       48
   42.235       47
   42.250       52
   42.265       48
   42.280       40
   42.295       48
   42.310       52
   42.325       51
   42.340       50
   42.355       51
   42.370       46
   42.385       39
   42.400       46
   42.415       49
   42.430       50
   42.445       45
   42.460       45
   42.475       43
   42.490       52
   42.505       53
   42.520       59
   42.535       61
   42.550       59
   42.565       53
   42.580       51
   42.595       54
   42.610       57
   42.625       57
   42.640       61
   42.655       56
   42.670       46
   42.685       44
   42.700       50
   42.715       38
   42.730       42
   42.745       54
   42.760       40
   42.775       37
   42.790       41
   42.805       36
   42.820       49
   42.835       45
   42.850       41
   42.865       30
   42.880       39
   42.895       52
   42.910       39
   42.925       40
   42.940       42
   42.955       44
   42.970       62
   42.985       64
   43.000       50
   43.015       51
   43.030       42
   43.045       47
   43.060       44
   43.075       50
   43.090       43
   43.105       48
   43.120       41
   43.135       32
   43.150       37
   43.165       40
   43.180       42
   43.195       41
   43.210       51
   43.225       41
   43.240       38
   43.255       41
   43.270       37
   43.285       42
   43.300       41
   43.315       52
   43.330       41
   43.345       42
   43.360       42
   43.375       45
   43.390       44
   43.405       56
   43.420       53
   43.435       48
   43.450       51
   43.465       53
   43.480       48
   43.495       44
   43.510       47
   43.525       55
   43.540       56
   43.555       56
   43.570       54
   43.585       50
   43.600       51
   43.615       50
   43.630       39
   43.645       44
   43.660       39
   43.675       38
   43.690       38
   43.705       45
   43.720       33
   43.735       36
   43.750       43
   43.765       42
   43.780       34
   43.795       34
   43.810       40
   43.825       43
   43.840       46
   43.855       45
   43.870       55
   43.885       43
   43.900       40
   43.915       45
   43.930       33
   43.945       46
   43.960       43
   43.975       36
   43.990       36
   44.005       35
   44.020       39
   44.035       42
   44.050       45
   44.065       47
   44.080       36
   44.095       31
   44.110       41
   44.125       48
   44.140       42
   44.155       36
   44.170       42
   44.185       36
   44.200       52
   44.215       53
   44.230       53
   44.245       56
   44.260       42
   44.275       48
   44.290       49
   44.305       40
   44.320       47
   44.335       61
   44.350       57
   44.365       53
   44.380       54
   44.395       59
   44.410       48
   44.425       39
   44.440       53
   44.455       64
   44.470       53
   44.485       51
   44.500       43
   44.515       55
   44.530       42
   44.545       48
   44.560       38
   44.575       48
   44.590       48
   44.605       56
   44.620       51
   44.635       49
   44.650       44
   44.665       45
   44.680       53
   44.695       49
   44.710       58
   44.725       51
   44.740       44
   44.755       44
   44.770       39
   44.785       43
   44.800       56
   44.815       48
   44.830       48
   44.845       50
   44.860       40
   44.875       57
   44.890       42
   44.905       44
   44.920       47
   44.935       45
   44.950       47
   44.965       58
   44.980       53
   44.995       48
   45.010       45
   45.025       55
   45.040       47
   45.055       54
   45.070       51
   45.085       46
   45.100       48
   45.115       64
   45.130       48
   45.145       48
   45.160       54
   45.175       55
   45.190       52
   45.205       66
   45.220       55
   45.235       55
   45.250       52
   45.265       52
   45.280       52
   45.295       53
   45.310       54
   45.325       52
   45.340       53
   45.355       51
   45.370       53
   45.385       49
   45.400       47
   45.415       42
   45.430       51
   45.445       51
   45.460       47
   45.475       49
   45.490       47
   45.505       40
   45.520       42
   45.535       46
   45.550       39
   45.565       54
   45.580       45
   45.595       45
   45.610       38
   45.625       48
   45.640       54
   45.655       43
   45.670       50
   45.685       42
   45.700       43
   45.715       45
   45.730       52
   45.745       44
   45.760       45
   45.775       42
   45.790       46
   45.805       44
   45.820       56
   45.835       41
   45.850       36
   45.865       46
   45.880       42
   45.895       48
   45.910       34
   45.925       42
   45.940       54
   45.955       43
   45.970       38
   45.985       37
