    4.000      220
    4.015      220
    4.030      219
    4.045      206
    4.060      192
    4.075      216
    4.090      199
    4.105      212
    4.120      218
    4.135      217
    4.150      202
    4.165      196
    4.180      222
    4.195      223
    4.210      230
    4.225      202
    4.240      203
    4.255      227
    4.270      220
    4.285      216
    4.300      203
    4.315      212
    4.330      220
    4.345      214
    4.360      206
    4.375      194
    4.390      204
    4.405      211
    4.420      196
    4.435      216
    4.450      204
    4.465      206
    4.480      193
    4.495      208
    4.510      203
    4.525      211
    4.540      210
    4.555      212
    4.570      198
    4.585      202
    4.600      198
    4.615      204
    4.630      186
    4.645      186
    4.660      169
    4.675      185
    4.690      186
    4.705      184
    4.720      194
    4.735      231
    4.750      195
    4.765      194
    4.780      193
    4.795      208
    4.810      195
    4.825      185
    4.840      199
    4.855      213
    4.870      208
    4.885      200
    4.900      203
    4.915      212
    4.930      214
    4.945      210
    4.960      206
    4.975      200
    4.990      205
    5.005      186
    5.020      195
    5.035      188
    5.050      189
    5.065      192
    5.080      187
    5.095      197
    5.110      214
    5.125      195
    5.140      201
    5.155      211
    5.170      210
    5.185      199
    5.200      200
    5.215      189
    5.230      198
    5.245      217
    5.260      197
    5.275      183
    5.290      181
    5.305      198
    5.320      184
    5.335      165
    5.350      178
    5.365      186
    5.380      193
    5.395      188
    5.410      181
    5.425      184
    5.440      196
    5.455      199
    5.470      197
    5.485      204
    5.500      176
    5.515      176
    5.530      177
    5.545      172
    5.560      191
    5.575      176
    5.590      189
    5.605      179
    5.620      179
    5.635      180
    5.650      212
    5.665      207
    5.680      208
    5.695      187
    5.710      170
    5.725      147
    5.740      185
    5.755      200
    5.770      189
    5.785      185
    5.800      198
    5.815      196
    5.830      194
    5.845      197
    5.860      179
    5.875      195
    5.890      174
    5.905      193
    5.920      188
    5.935      193
    5.950      202
    5.965      179
    5.980      214
    5.995      211
    6.010      192
    6.025      191
    6.040      180
    6.055      177
    6.070      168
    6.085      186
    6.100      176
    6.115      194
    6.130      187
    6.145      178
    6.160      179
    6.175      207
    6.190      213
    6.205      197
    6.220      219
    6.235      223
    6.250      194
    6.265      215
    6.280      228
    6.295      207
    6.310      217
    6.325      210
    6.340      221
    6.355      220
    6.370      221
    6.385      250
    6.400      227
    6.415      263
    6.430      281
    6.445      291
    6.460      327
    6.475      346
    6.490      334
    6.505      383
    6.520      446
    6.535      437
    6.550      429
    6.565      422
    6.580      433
    6.595      486
    6.610      424
    6.625      318
    6.640      242
    6.655      218
    6.670      181
    6.685      165
    6.700      178
    6.715      173
    6.730      192
    6.745      204
    6.760      190
    6.775      189
    6.790      191
    6.805      194
    6.820      179
    6.835      181
    6.850      179
    6.865      192
    6.880      207
    6.895      213
    6.910      195
    6.925      206
    6.940      210
    6.955      212
    6.970      193
    6.985      203
    7.000      228
    7.015      224
    7.030      243
    7.045      204
    7.060      214
    7.075      265
    7.090      264
    7.105      310
    7.120      340
    7.135      258
    7.150      240
    7.165      194
    7.180      172
    7.195      161
    7.210      167
    7.225      163
    7.240      162
    7.255      172
    7.270      169
    7.285      196
    7.300      184
    7.315      169
    7.330      185
    7.345      175
    7.360      216
    7.375      207
    7.390      180
    7.405      199
    7.420      203
    7.435      185
    7.450      205
    7.465      183
    7.480      184
    7.495      198
    7.510      198
    7.525      229
    7.540      222
    7.555      231
    7.570      236
    7.585      262
    7.600      216
    7.615      225
    7.630      193
    7.645      190
    7.660      180
    7.675      155
    7.690      169
    7.705      178
    7.720      162
    7.735      163
    7.750      160
    7.765      161
    7.780      165
    7.795      167
    7.810      164
    7.825      161
    7.840      180
    7.855      176
    7.870      162
    7.885      170
    7.900      185
    7.915      179
    7.930      166
    7.945      162
    7.960      166
    7.975      166
    7.990      166
    8.005      166
    8.020      168
    8.035      170
    8.050      183
    8.065      180
    8.080      174
    8.095      183
    8.110      172
    8.125      181
    8.140      187
    8.155      185
    8.170      186
    8.185      176
    8.200      171
    8.215      172
    8.230      177
    8.245      197
    8.260      195
    8.275      170
    8.290      180
    8.305      171
    8.320      158
    8.335      184
    8.350      190
    8.365      196
    8.380      168
    8.395      174
    8.410      183
    8.425      177
    8.440      174
    8.455      185
    8.470      200
    8.485      211
    8.500      183
    8.515      193
    8.530      169
    8.545      168
    8.560      166
    8.575      171
    8.590      182
    8.605      183
    8.620      173
    8.635      194
    8.650      191
    8.665      169
    8.680      173
    8.695      194
    8.710      181
    8.725      176
    8.740      181
    8.755      190
    8.770      176
    8.785      197
    8.800      173
    8.815      171
    8.830      150
    8.845      178
    8.860      208
    8.875      175
    8.890      180
    8.905      192
    8.920      186
    8.935      162
    8.950      180
    8.965      189
    8.980      188
    8.995      152
    9.010      175
    9.025      186
    9.040      196
    9.055      191
    9.070      181
    9.085      178
    9.100      189
    9.115      225
    9.130      193
    9.145      184
    9.160      193
    9.175      188
    9.190      184
    9.205      209
    9.220      188
    9.235      187
    9.250      193
    9.265      190
    9.280      199
    9.295      200
    9.310      197
    9.325      184
    9.340      193
    9.355      182
    9.370      200
    9.385      195
    9.400      199
    9.415      179
    9.430      192
    9.445      164
    9.460      195
    9.475      210
    9.490      202
    9.505      198
    9.520      222
    9.535      226
    9.550      212
    9.565      197
    9.580      195
    9.595      185
    9.610      192
    9.625      209
    9.640      219
    9.655      199
    9.670      236
    9.685      241
    9.700      256
    9.715      250
    9.730      230
    9.745      198
    9.760      224
    9.775      217
    9.790      199
    9.805      174
    9.820      198
    9.835      191
    9.850      162
    9.865      186
    9.880      203
    9.895      188
    9.910      184
    9.925      174
    9.940      188
    9.955      178
    9.970      199
    9.985      173
   10.000      200
   10.015      194
   10.030      197
   10.045      185
   10.060      182
   10.075      161
   10.090      192
   10.105      187
   10.120      189
   10.135      209
   10.150      204
   10.165      222
   10.180      199
   10.195      211
   10.210      239
   10.225      247
   10.240      229
   10.255      264
   10.270      256
   10.285      244
   10.300      309
   10.315      329
   10.330      339
   10.345      384
   10.360      453
   10.375      397
   10.390      347
   10.405      334
   10.420      390
   10.435      364
   10.450      285
   10.465      268
   10.480      216
   10.495      201
   10.510      190
   10.525      177
   10.540      203
   10.555      201
   10.570      214
   10.585      181
   10.600      217
   10.615      191
   10.630      201
   10.645      206
   10.660      206
   10.675      191
   10.690      221
   10.705      227
   10.720      223
   10.735      258
   10.750      304
   10.765      273
   10.780      241
   10.795      208
   10.810      208
   10.825      194
   10.840      189
   10.855      189
   10.870      187
   10.885      191
   10.900      201
   10.915      208
   10.930      210
   10.945      207
   10.960      219
   10.975      224
   10.990      238
   11.005      231
   11.020      241
   11.035      252
   11.050      260
   11.065      288
   11.080      338
   11.095      343
   11.110      360
   11.125      382
   11.140      380
   11.155      326
   11.170      269
   11.185      225
   11.200      210
   11.215      206
   11.230      213
   11.245      220
   11.260      240
   11.275      264
   11.290      270
   11.305      279
   11.320      276
   11.335      261
   11.350      218
   11.365      182
   11.380      182
   11.395      173
   11.410      170
   11.425      173
   11.440      167
   11.455      172
   11.470      170
   11.485      170
   11.500      158
   11.515      141
   11.530      155
   11.545      150
   11.560      160
   11.575      158
   11.590      189
   11.605      170
   11.620      186
   11.635      207
   11.650      188
   11.665      179
   11.680      210
   11.695      226
   11.710      224
   11.725      243
   11.740      253
   11.755      255
   11.770      316
   11.785      320
   11.800      321
   11.815      280
   11.830      236
   11.845      196
   11.860      198
   11.875      208
   11.890      224
   11.905      225
   11.920      257
   11.935      261
   11.950      218
   11.965      231
   11.980      208
   11.995      198
   12.010      179
   12.025      159
   12.040      168
   12.055      182
   12.070      160
   12.085      153
   12.100      196
   12.115      167
   12.130      164
   12.145      177
   12.160      162
   12.175      191
   12.190      187
   12.205      178
   12.220      171
   12.235      175
   12.250      181
   12.265      198
   12.280      204
   12.295      212
   12.310      227
   12.325      228
   12.340      257
   12.355      288
   12.370      333
   12.385      394
   12.400      415
   12.415      519
   12.430      606
   12.445      659
   12.460      832
   12.475     1005
   12.490     1185
   12.505     1440
   12.520     1755
   12.535     2050
   12.550     2014
   12.565     1621
   12.580     1249
   12.595     1138
   12.610     1226
   12.625     1293
   12.640     1269
   12.655     1091
   12.670      841
   12.685      580
   12.700      372
   12.715      266
   12.730      233
   12.745      246
   12.760      232
   12.775      254
   12.790      257
   12.805      262
   12.820      270
   12.835      318
   12.850      347
   12.865      361
   12.880      440
   12.895      490
   12.910      627
   12.925      751
   12.940      762
   12.955      678
   12.970      589
   12.985      550
   13.000      569
   13.015      677
   13.030      839
   13.045     1009
   13.060     1208
   13.075     1412
   13.090     1937
   13.105     2185
   13.120     1950
   13.135     1686
   13.150     1537
   13.165     1552
   13.180     1858
   13.195     2160
   13.210     2776
   13.225     3597
   13.240     3898
   13.255     3283
   13.270     2057
   13.285     1069
   13.300      593
   13.315      455
   13.330      398
   13.345      377
   13.360      425
   13.375      419
   13.390      443
   13.405      509
   13.420      591
   13.435      638
   13.450      748
   13.465      819
   13.480      851
   13.495      897
   13.510      857
   13.525      709
   13.540      474
   13.555      315
   13.570      249
   13.585      215
   13.600      249
   13.615      267
   13.630      271
   13.645      264
   13.660      295
   13.675      359
   13.690      411
   13.705      421
   13.720      483
   13.735      512
   13.750      442
   13.765      358
   13.780      261
   13.795      234
   13.810      176
   13.825      173
   13.840      160
   13.855      153
   13.870      155
   13.885      174
   13.900      156
   13.915      143
   13.930      169
   13.945      162
   13.960      151
   13.975      158
   13.990      175
   14.005      196
   14.020      194
   14.035      201
   14.050      208
   14.065      229
   14.080      217
   14.095      244
   14.110      272
   14.125      293
   14.140      327
   14.155      416
   14.170      464
   14.185      495
   14.200      505
   14.215      442
   14.230      407
   14.245      428
   14.260      450
   14.275      561
   14.290      610
   14.305      591
   14.320      619
   14.335      711
   14.350      815
   14.365      943
   14.380     1052
   14.395      932
   14.410      682
   14.425      397
   14.440      278
   14.455      230
   14.470      196
   14.485      157
   14.500      165
   14.515      156
   14.530      146
   14.545      176
   14.560      153
   14.575      170
   14.590      154
   14.605      128
   14.620      147
   14.635      144
   14.650      149
   14.665      171
   14.680      162
   14.695      174
   14.710      172
   14.725      163
   14.740      185
   14.755      220
   14.770      229
   14.785      274
   14.800      297
   14.815      363
   14.830      444
   14.845      488
   14.860      610
   14.875      764
   14.890      811
   14.905      870
   14.920      995
   14.935     1162
   14.950     1410
   14.965     1735
   14.980     1896
   14.995     1606
   15.010     1087
   15.025      624
   15.040      446
   15.055      328
   15.070      304
   15.085      296
   15.100      320
   15.115      340
   15.130      349
   15.145      385
   15.160      430
   15.175      509
   15.190      579
   15.205      579
   15.220      560
   15.235      520
   15.250      456
   15.265      412
   15.280      440
   15.295      350
   15.310      294
   15.325      262
   15.340      253
   15.355      290
   15.370      295
   15.385      346
   15.400      370
   15.415      434
   15.430      470
   15.445      584
   15.460      694
   15.475      771
   15.490      749
   15.505      577
   15.520      448
   15.535      359
   15.550      357
   15.565      350
   15.580      388
   15.595      432
   15.610      444
   15.625      557
   15.640      688
   15.655      740
   15.670      695
   15.685      552
   15.700      414
   15.715      299
   15.730      233
   15.745      209
   15.760      178
   15.775      195
   15.790      207
   15.805      210
   15.820      221
   15.835      266
   15.850      267
   15.865      335
   15.880      323
   15.895      367
   15.910      405
   15.925      463
   15.940      577
   15.955      654
   15.970      870
   15.985     1032
   16.000     1112
   16.015      879
   16.030      619
   16.045      423
   16.060      313
   16.075      282
   16.090      297
   16.105      327
   16.120      369
   16.135      417
   16.150      484
   16.165      557
   16.180      683
   16.195      677
   16.210      591
   16.225      569
   16.240      645
   16.255      781
   16.270      965
   16.285     1224
   16.300     1257
   16.315     1019
   16.330      847
   16.345      682
   16.360      671
   16.375      713
   16.390      798
   16.405      965
   16.420     1107
   16.435     1168
   16.450     1066
   16.465      901
   16.480      747
   16.495      716
   16.510      734
   16.525      863
   16.540     1043
   16.555     1288
   16.570     1355
   16.585     1235
   16.600      967
   16.615      820
   16.630      817
   16.645      910
   16.660      960
   16.675      889
   16.690      913
   16.705      831
   16.720      664
   16.735      493
   16.750      370
   16.765      327
   16.780      302
   16.795      318
   16.810      336
   16.825      359
   16.840      356
   16.855      399
   16.870      480
   16.885      560
   16.900      653
   16.915      682
   16.930      573
   16.945      485
   16.960      404
   16.975      322
   16.990      318
   17.005      343
   17.020      346
   17.035      389
   17.050      442
   17.065      491
   17.080      553
   17.095      570
   17.110      599
   17.125      556
   17.140      458
   17.155      368
   17.170      342
   17.185      357
   17.200      352
   17.215      342
   17.230      324
   17.245      340
   17.260      385
   17.275      418
   17.290      446
   17.305      535
   17.320      670
   17.335      650
   17.350      545
   17.365      382
   17.380      286
   17.395      203
   17.410      200
   17.425      206
   17.440      176
   17.455      189
   17.470      185
   17.485      188
   17.500      238
   17.515      292
   17.530      305
   17.545      346
   17.560      338
   17.575      334
   17.590      367
   17.605      407
   17.620      392
   17.635      322
   17.650      256
   17.665      187
   17.680      208
   17.695      199
   17.710      197
   17.725      176
   17.740      165
   17.755      153
   17.770      138
   17.785      153
   17.800      138
   17.815      130
   17.830      117
   17.845      123
   17.860      133
   17.875      129
   17.890      133
   17.905      118
   17.920      127
   17.935      141
   17.950      154
   17.965      136
   17.980      148
   17.995      146
   18.010      158
   18.025      196
   18.040      206
   18.055      238
   18.070      266
   18.085      295
   18.100      330
   18.115      353
   18.130      360
   18.145      380
   18.160      444
   18.175      429
   18.190      341
   18.205      276
   18.220      213
   18.235      193
   18.250      169
   18.265      171
   18.280      170
   18.295      190
   18.310      212
   18.325      227
   18.340      241
   18.355      270
   18.370      348
   18.385      425
   18.400      515
   18.415      581
   18.430      541
   18.445      490
   18.460      456
   18.475      502
   18.490      552
   18.505      620
   18.520      757
   18.535      790
   18.550      792
   18.565      711
   18.580      556
   18.595      388
   18.610      303
   18.625      274
   18.640      278
   18.655      348
   18.670      305
   18.685      309
   18.700      344
   18.715      414
   18.730      478
   18.745      542
   18.760      496
   18.775      469
   18.790      405
   18.805      362
   18.820      368
   18.835      336
   18.850      269
   18.865      236
   18.880      188
   18.895      179
   18.910      148
   18.925      127
   18.940      141
   18.955      125
   18.970      136
   18.985      159
   19.000      133
   19.015      133
   19.030      126
   19.045      144
   19.060      123
   19.075      125
   19.090      135
   19.105      131
   19.120      136
   19.135      132
   19.150      121
   19.165      136
   19.180      143
   19.195      136
   19.210      136
   19.225      112
   19.240      116
   19.255      135
   19.270      128
   19.285      136
   19.300      140
   19.315      159
   19.330      174
   19.345      189
   19.360      207
   19.375      227
   19.390      262
   19.405      317
   19.420      392
   19.435      430
   19.450      434
   19.465      442
   19.480      477
   19.495      419
   19.510      383
   19.525      336
   19.540      323
   19.555      280
   19.570      265
   19.585      284
   19.600      279
   19.615      350
   19.630      408
   19.645      464
   19.660      596
   19.675      767
   19.690      968
   19.705     1131
   19.720     1212
   19.735     1213
   19.750     1025
   19.765      794
   19.780      682
   19.795      605
   19.810      668
   19.825      751
   19.840      839
   19.855      855
   19.870      843
   19.885      733
   19.900      598
   19.915      499
   19.930      456
   19.945      371
   19.960      311
   19.975      273
   19.990      253
   20.005      271
   20.020      282
   20.035      303
   20.050      337
   20.065      350
   20.080      312
   20.095      266
   20.110      225
   20.125      197
   20.140      187
   20.155      160
   20.170      146
   20.185      135
   20.200      123
   20.215      124
   20.230      145
   20.245      152
   20.260      149
   20.275      140
   20.290      149
   20.305      152
   20.320      151
   20.335      154
   20.350      156
   20.365      166
   20.380      175
   20.395      182
   20.410      197
   20.425      196
   20.440      202
   20.455      203
   20.470      192
   20.485      182
   20.500      198
   20.515      223
   20.530      262
   20.545      285
   20.560      348
   20.575      394
   20.590      478
   20.605      531
   20.620      504
   20.635      469
   20.650      441
   20.665      445
   20.680      476
   20.695      496
   20.710      453
   20.725      400
   20.740      294
   20.755      210
   20.770      193
   20.785      220
   20.800      225
   20.815      225
   20.830      213
   20.845      189
   20.860      173
   20.875      191
   20.890      206
   20.905      204
   20.920      202
   20.935      229
   20.950      241
   20.965      203
   20.980      209
   20.995      193
   21.010      169
   21.025      184
   21.040      213
   21.055      201
   21.070      210
   21.085      221
   21.100      207
   21.115      190
   21.130      150
   21.145      154
   21.160      140
   21.175      163
   21.190      154
   21.205      145
   21.220      178
   21.235      155
   21.250      182
   21.265      200
   21.280      222
   21.295      243
   21.310      278
   21.325      303
   21.340      337
   21.355      449
   21.370      548
   21.385      609
   21.400      706
   21.415      715
   21.430      673
   21.445      560
   21.460      485
   21.475      532
   21.490      534
   21.505      565
   21.520      595
   21.535      707
   21.550      915
   21.565     1096
   21.580     1291
   21.595     1689
   21.610     1896
   21.625     1793
   21.640     1382
   21.655     1021
   21.670      699
   21.685      567
   21.700      521
   21.715      532
   21.730      528
   21.745      481
   21.760      399
   21.775      293
   21.790      219
   21.805      210
   21.820      181
   21.835      170
   21.850      180
   21.865      170
   21.880      160
   21.895      152
   21.910      169
   21.925      183
   21.940      184
   21.955      180
   21.970      188
   21.985      193
   22.000      189
   22.015      189
   22.030      216
   22.045      184
   22.060      213
   22.075      228
   22.090      228
   22.105      228
   22.120      220
   22.135      230
   22.150      254
   22.165      258
   22.180      302
   22.195      339
   22.210      367
   22.225      382
   22.240      358
   22.255      321
   22.270      259
   22.285      237
   22.300      251
   22.315      272
   22.330      288
   22.345      333
   22.360      371
   22.375      474
   22.390      524
   22.405      612
   22.420      595
   22.435      534
   22.450      422
   22.465      322
   22.480      303
   22.495      307
   22.510      315
   22.525      315
   22.540      336
   22.555      392
   22.570      379
   22.585      446
   22.600      551
   22.615      629
   22.630      670
   22.645      653
   22.660      600
   22.675      541
   22.690      483
   22.705      468
   22.720      457
   22.735      430
   22.750      360
   22.765      293
   22.780      307
   22.795      277
   22.810      311
   22.825      358
   22.840      404
   22.855      422
   22.870      426
   22.885      375
   22.900      325
   22.915      296
   22.930      259
   22.945      263
   22.960      289
   22.975      315
   22.990      320
   23.005      327
   23.020      309
   23.035      283
   23.050      249
   23.065      209
   23.080      200
   23.095      197
   23.110      199
   23.125      179
   23.140      201
   23.155      242
   23.170      284
   23.185      304
   23.200      314
   23.215      304
   23.230      303
   23.245      255
   23.260      182
   23.275      157
   23.290      154
   23.305      149
   23.320      137
   23.335      129
   23.350      142
   23.365      142
   23.380      157
   23.395      165
   23.410      148
   23.425      121
   23.440      140
   23.455      148
   23.470      151
   23.485      143
   23.500      133
   23.515      127
   23.530      137
   23.545      150
   23.560      141
   23.575      153
   23.590      160
   23.605      178
   23.620      200
   23.635      217
   23.650      189
   23.665      188
   23.680      194
   23.695      212
   23.710      210
   23.725      227
   23.740      254
   23.755      280
   23.770      275
   23.785      307
   23.800      307
   23.815      289
   23.830      241
   23.845      193
   23.860      182
   23.875      158
   23.890      165
   23.905      156
   23.920      158
   23.935      190
   23.950      243
   23.965      266
   23.980      291
   23.995      344
   24.010      418
   24.025      456
   24.040      433
   24.055      357
   24.070      286
   24.085      253
   24.100      217
   24.115      204
   24.130      202
   24.145      199
   24.160      223
   24.175      218
   24.190      216
   24.205      218
   24.220      226
   24.235      240
   24.250      245
   24.265      245
   24.280      221
   24.295      212
   24.310      208
   24.325      201
   24.340      187
   24.355      175
   24.370      152
   24.385      160
   24.400      164
   24.415      175
   24.430      186
   24.445      185
   24.460      196
   24.475      189
   24.490      171
   24.505      191
   24.520      186
   24.535      179
   24.550      197
   24.565      176
   24.580      159
   24.595      151
   24.610      169
   24.625      152
   24.640      174
   24.655      187
   24.670      195
   24.685      236
   24.700      282
   24.715      295
   24.730      338
   24.745      338
   24.760      342
   24.775      332
   24.790      313
   24.805      287
   24.820      301
   24.835      304
   24.850      318
   24.865      304
   24.880      293
   24.895      298
   24.910      352
   24.925      355
   24.940      357
   24.955      299
   24.970      295
   24.985      232
   25.000      194
   25.015      185
   25.030      192
   25.045      160
   25.060      146
   25.075      143
   25.090      151
   25.105      168
   25.120      191
   25.135      208
   25.150      194
   25.165      227
   25.180      282
   25.195      288
   25.210      282
   25.225      288
   25.240      293
   25.255      264
   25.270      252
   25.285      211
   25.300      232
   25.315      248
   25.330      289
   25.345      327
   25.360      336
   25.375      413
   25.390      495
   25.405      525
   25.420      531
   25.435      557
   25.450      588
   25.465      577
   25.480      547
   25.495      442
   25.510      327
   25.525      268
   25.540      255
   25.555      235
   25.570      248
   25.585      279
   25.600      301
   25.615      310
   25.630      355
   25.645      376
   25.660      371
   25.675      317
   25.690      265
   25.705      222
   25.720      191
   25.735      189
   25.750      207
   25.765      218
   25.780      203
   25.795      197
   25.810      212
   25.825      207
   25.840      221
   25.855      247
   25.870      272
   25.885      300
   25.900      300
   25.915      300
   25.930      255
   25.945      228
   25.960      192
   25.975      189
   25.990      179
   26.005      170
   26.020      168
   26.035      174
   26.050      181
   26.065      179
   26.080      177
   26.095      179
   26.110      191
   26.125      193
   26.140      183
   26.155      187
   26.170      152
   26.185      147
   26.200      145
   26.215      128
   26.230      129
   26.245      145
   26.260      126
   26.275      140
   26.290      149
   26.305      168
   26.320      176
   26.335      189
   26.350      235
   26.365      239
   26.380      292
   26.395      297
   26.410      260
   26.425      235
   26.440      188
   26.455      170
   26.470      171
   26.485      144
   26.500      160
   26.515      164
   26.530      177
   26.545      171
   26.560      205
   26.575      230
   26.590      261
   26.605      253
   26.620      320
   26.635      396
   26.650      468
   26.665      534
   26.680      606
   26.695      521
   26.710      569
   26.725      509
   26.740      513
   26.755      463
   26.770      404
   26.785      311
   26.800      265
   26.815      255
   26.830      228
   26.845      200
   26.860      203
   26.875      183
   26.890      203
   26.905      218
   26.920      223
   26.935      226
   26.950      249
   26.965      223
   26.980      212
   26.995      199
   27.010      209
   27.025      180
   27.040      165
   27.055      165
   27.070      159
   27.085      184
   27.100      187
   27.115      193
   27.130      185
   27.145      182
   27.160      190
   27.175      247
   27.190      257
   27.205      315
   27.220      336
   27.235      370
   27.250      427
   27.265      446
   27.280      438
   27.295      425
   27.310      433
   27.325      438
   27.340      456
   27.355      462
   27.370      462
   27.385      459
   27.400      438
   27.415      479
   27.430      462
   27.445      413
   27.460      377
   27.475      332
   27.490      275
   27.505      252
   27.520      257
   27.535      243
   27.550      257
   27.565      258
   27.580      274
   27.595      261
   27.610      285
   27.625      273
   27.640      264
   27.655      269
   27.670      267
   27.685      245
   27.700      218
   27.715      186
   27.730      168
   27.745      161
   27.760      172
   27.775      208
   27.790      181
   27.805      175
   27.820      209
   27.835      236
   27.850      264
   27.865      284
   27.880      282
   27.895      315
   27.910      303
   27.925      280
   27.940      255
   27.955      248
   27.970      223
   27.985      214
   28.000      234
   28.015      231
   28.030      271
   28.045      278
   28.060      277
   28.075      296
   28.090      289
   28.105      268
   28.120      260
   28.135      230
   28.150      209
   28.165      207
   28.180      182
   28.195      180
   28.210      170
   28.225      150
   28.240      136
   28.255      145
   28.270      154
   28.285      149
   28.300      144
   28.315      132
   28.330      155
   28.345      157
   28.360      184
   28.375      200
   28.390      211
   28.405      236
   28.420      224
   28.435      231
   28.450      253
   28.465      240
   28.480      219
   28.495      207
   28.510      187
   28.525      195
   28.540      199
   28.555      199
   28.570      243
   28.585      250
   28.600      279
   28.615      284
   28.630      329
   28.645      325
   28.660      301
   28.675      286
   28.690      277
   28.705      289
   28.720      278
   28.735      275
   28.750      231
   28.765      255
   28.780      265
   28.795      276
   28.810      268
   28.825      267
   28.840      244
   28.855      221
   28.870      193
   28.885      185
   28.900      190
   28.915      198
   28.930      216
   28.945      207
   28.960      196
   28.975      199
   28.990      231
   29.005      220
   29.020      188
   29.035      190
   29.050      184
   29.065      164
   29.080      159
   29.095      164
   29.110      154
   29.125      160
   29.140      153
   29.155      176
   29.170      194
   29.185      207
   29.200      217
   29.215      221
   29.230      215
   29.245      242
   29.260      253
   29.275      257
   29.290      247
   29.305      263
   29.320      275
   29.335      298
   29.350      342
   29.365      389
   29.380      408
   29.395      435
   29.410      380
   29.425      307
   29.440      266
   29.455      273
   29.470      242
   29.485      253
   29.500      247
   29.515      219
   29.530      214
   29.545      241
   29.560      218
   29.575      235
   29.590      252
   29.605      222
   29.620      213
   29.635      221
   29.650      198
   29.665      177
   29.680      167
   29.695      167
   29.710      147
   29.725      148
   29.740      165
   29.755      177
   29.770      181
   29.785      197
   29.800      186
   29.815      195
   29.830      158
   29.845      188
   29.860      189
   29.875      172
   29.890      166
   29.905      158
   29.920      149
   29.935      173
   29.950      154
   29.965      155
   29.980      163
   29.995      162
   30.010      177
   30.025      179
   30.040      183
   30.055      172
   30.070      189
   30.085      202
   30.100      196
   30.115      172
   30.130      153
   30.145      169
   30.160      173
   30.175      173
   30.190      188
   30.205      217
   30.220      202
   30.235      208
   30.250      212
   30.265      241
   30.280      253
   30.295      238
   30.310      265
   30.325      302
   30.340      292
   30.355      268
   30.370      230
   30.385      191
   30.400      170
   30.415      142
   30.430      155
   30.445      142
   30.460      148
   30.475      142
   30.490      138
   30.505      143
   30.520      141
   30.535      139
   30.550      148
   30.565      166
   30.580      186
   30.595      194
   30.610      219
   30.625      232
   30.640      258
   30.655      262
   30.670      303
   30.685      298
   30.700      304
   30.715      284
   30.730      286
   30.745      266
   30.760      247
   30.775      236
   30.790      232
   30.805      224
   30.820      219
   30.835      212
   30.850      195
   30.865      219
   30.880      203
   30.895      185
   30.910      184
   30.925      187
   30.940      196
   30.955      162
   30.970      173
   30.985      195
   31.000      203
   31.015      196
   31.030      223
   31.045      232
   31.060      245
   31.075      237
   31.090      235
   31.105      227
   31.120      233
   31.135      244
   31.150      232
   31.165      205
   31.180      203
   31.195      213
   31.210      215
   31.225      244
   31.240      262
   31.255      281
   31.270      299
   31.285      329
   31.300      275
   31.315      256
   31.330      268
   31.345      235
   31.360      250
   31.375      238
   31.390      265
   31.405      255
   31.420      278
   31.435      273
   31.450      285
   31.465      289
   31.480      256
   31.495      257
   31.510      261
   31.525      283
   31.540      340
   31.555      367
   31.570      439
   31.585      451
   31.600      387
   31.615      355
   31.630      322
   31.645      292
   31.660      241
   31.675      244
   31.690      253
   31.705      259
   31.720      259
   31.735      244
   31.750      247
   31.765      261
   31.780      257
   31.795      253
   31.810      246
   31.825      247
   31.840      238
   31.855      207
   31.870      199
   31.885      188
   31.900      165
   31.915      167
   31.930      154
   31.945      141
   31.960      142
   31.975      146
   31.990      163
   32.005      169
   32.020      160
   32.035      176
   32.050      175
   32.065      193
   32.080      190
   32.095      182
   32.110      180
   32.125      173
   32.140      162
   32.155      152
   32.170      140
   32.185      137
   32.200      130
   32.215      130
   32.230      136
   32.245      137
   32.260      146
   32.275      154
   32.290      147
   32.305      155
   32.320      169
   32.335      172
   32.350      149
   32.365      134
   32.380      162
   32.395      146
   32.410      133
   32.425      144
   32.440      157
   32.455      142
   32.470      141
   32.485      160
   32.500      161
   32.515      175
   32.530      173
   32.545      181
   32.560      178
   32.575      240
   32.590      259
   32.605      254
   32.620      338
   32.635      404
   32.650      372
   32.665      408
   32.680      410
   32.695      401
   32.710      323
   32.725      296
   32.740      245
   32.755      224
   32.770      199
   32.785      194
   32.800      205
   32.815      194
   32.830      203
   32.845      201
   32.860      217
   32.875      191
   32.890      186
   32.905      188
   32.920      206
   32.935      190
   32.950      191
   32.965      194
   32.980      193
   32.995      184
   33.010      203
   33.025      232
   33.040      219
   33.055      250
   33.070      239
   33.085      222
   33.100      253
   33.115      295
   33.130      319
   33.145      310
   33.160      357
   33.175      359
   33.190      365
   33.205      338
   33.220      312
   33.235      290
   33.250      292
   33.265      320
   33.280      297
   33.295      299
   33.310      242
   33.325      232
   33.340      229
   33.355      201
   33.370      200
   33.385      187
   33.400      200
   33.415      207
   33.430      232
   33.445      269
   33.460      285
   33.475      320
   33.490      361
   33.505      367
   33.520      362
   33.535      307
   33.550      281
   33.565      242
   33.580      247
   33.595      234
   33.610      220
   33.625      242
   33.640      263
   33.655      276
   33.670      284
   33.685      278
   33.700      231
   33.715      242
   33.730      219
   33.745      214
   33.760      210
   33.775      198
   33.790      194
   33.805      200
   33.820      177
   33.835      191
   33.850      193
   33.865      189
   33.880      182
   33.895      194
   33.910      184
   33.925      164
   33.940      155
   33.955      164
   33.970      133
   33.985      143
   34.000      146
   34.015      161
   34.030      138
   34.045      172
   34.060      181
   34.075      188
   34.090      199
   34.105      208
   34.120      224
   34.135      249
   34.150      225
   34.165      226
   34.180      239
   34.195      241
   34.210      235
   34.225      226
   34.240      205
   34.255      207
   34.270      202
   34.285      173
   34.300      180
   34.315      173
   34.330      161
   34.345      186
   34.360      174
   34.375      189
   34.390      198
   34.405      205
   34.420      218
   34.435      211
   34.450      194
   34.465      188
   34.480      186
   34.495      196
   34.510      196
   34.525      200
   34.540      211
   34.555      192
   34.570      181
   34.585      198
   34.600      187
   34.615      192
   34.630      214
   34.645      217
   34.660      205
   34.675      184
   34.690      175
   34.705      203
   34.720      198
   34.735      223
   34.750      222
   34.765      230
   34.780      250
   34.795      248
   34.810      245
   34.825      247
   34.840      241
   34.855      258
   34.870      265
   34.885      238
   34.900      244
   34.915      249
   34.930      253
   34.945      276
   34.960      326
   34.975      345
   34.990      370
   35.005      353
   35.020      343
   35.035      344
   35.050      382
   35.065      417
   35.080      401
   35.095      414
   35.110      430
   35.125      422
   35.140      414
   35.155      386
   35.170      357
   35.185      337
   35.200      371
   35.215      384
   35.230      413
   35.245      404
   35.260      403
   35.275      381
   35.290      379
   35.305      361
   35.320      360
   35.335      336
   35.350      283
   35.365      291
   35.380      267
   35.395      238
   35.410      205
   35.425      183
   35.440      163
   35.455      165
   35.470      159
   35.485      152
   35.500      165
   35.515      149
   35.530      135
   35.545      126
   35.560      170
   35.575      172
   35.590      154
   35.605      174
   35.620      163
   35.635      176
   35.650      183
   35.665      158
   35.680      171
   35.695      167
   35.710      173
   35.725      156
   35.740      169
   35.755      150
   35.770      179
   35.785      174
   35.800      155
   35.815      195
   35.830      186
   35.845      164
   35.860      182
   35.875      195
   35.890      212
   35.905      220
   35.920      240
   35.935      260
   35.950      222
   35.965      210
   35.980      191
   35.995      158
   36.010      178
   36.025      187
   36.040      162
   36.055      165
   36.070      160
   36.085      142
   36.100      143
   36.115      139
   36.130      143
   36.145      155
   36.160      139
   36.175      146
   36.190      152
   36.205      145
   36.220      167
   36.235      154
   36.250      165
   36.265      145
   36.280      167
   36.295      148
   36.310      147
   36.325      164
   36.340      166
   36.355      172
   36.370      185
   36.385      208
   36.400      192
   36.415      193
   36.430      183
   36.445      169
   36.460      176
   36.475      152
   36.490      160
   36.505      150
   36.520      140
   36.535      153
   36.550      144
   36.565      152
   36.580      165
   36.595      140
   36.610      171
   36.625      180
   36.640      172
   36.655      158
   36.670      171
   36.685      186
   36.700      198
   36.715      218
   36.730      213
   36.745      228
   36.760      205
   36.775      185
   36.790      175
   36.805      156
   36.820      176
   36.835      172
   36.850      172
   36.865      182
   36.880      192
   36.895      182
   36.910      177
   36.925      201
   36.940      240
   36.955      215
   36.970      213
   36.985      188
   37.000      153
   37.015      171
   37.030      153
   37.045      138
   37.060      137
   37.075      121
   37.090      116
   37.105      133
   37.120      130
   37.135      150
   37.150      147
   37.165      130
   37.180      148
   37.195      145
   37.210      139
   37.225      143
   37.240      140
   37.255      119
   37.270      129
   37.285      124
   37.300      134
   37.315      134
   37.330      151
   37.345      175
   37.360      152
   37.375      161
   37.390      143
   37.405      153
   37.420      130
   37.435      152
   37.450      159
   37.465      174
   37.480      176
   37.495      185
   37.510      175
   37.525      191
   37.540      172
   37.555      154
   37.570      164
   37.585      180
   37.600      201
   37.615      209
   37.630      211
   37.645      190
   37.660      190
   37.675      172
   37.690      170
   37.705      158
   37.720      146
   37.735      135
   37.750      142
   37.765      122
   37.780      131
   37.795      133
   37.810      152
   37.825      167
   37.840      152
   37.855      163
   37.870      170
   37.885      177
   37.900      137
   37.915      119
   37.930      123
   37.945      129
   37.960      149
   37.975      182
   37.990      196
   38.005      211
   38.020      248
   38.035      250
   38.050      251
   38.065      240
   38.080      227
   38.095      228
   38.110      210
   38.125      194
   38.140      176
   38.155      183
   38.170      183
   38.185      180
   38.200      170
   38.215      197
   38.230      194
   38.245      194
   38.260      206
   38.275      199
   38.290      191
   38.305      184
   38.320      173
   38.335      179
   38.350      168
   38.365      143
   38.380      155
   38.395      173
   38.410      167
   38.425      178
   38.440      169
   38.455      183
   38.470      171
   38.485      187
   38.500      176
   38.515      188
   38.530      206
   38.545      174
   38.560      167
   38.575      168
   38.590      161
   38.605      186
   38.620      186
   38.635      180
   38.650      177
   38.665      165
   38.680      178
   38.695      165
   38.710      152
   38.725      185
   38.740      166
   38.755      168
   38.770      159
   38.785      164
   38.800      170
   38.815      168
   38.830      155
   38.845      135
   38.860      151
   38.875      162
   38.890      154
   38.905      144
   38.920      155
   38.935      151
   38.950      150
   38.965      154
   38.980      129
   38.995      134
   39.010      118
   39.025      127
   39.040      124
   39.055      134
   39.070      132
   39.085      124
   39.100      141
   39.115      136
   39.130      135
   39.145      133
   39.160      111
   39.175      130
   39.190      139
   39.205      132
   39.220      133
   39.235      136
   39.250      138
   39.265      130
   39.280      145
   39.295      158
   39.310      146
   39.325      167
   39.340      155
   39.355      154
   39.370      167
   39.385      152
   39.400      166
   39.415      203
   39.430      181
   39.445      188
   39.460      205
   39.475      186
   39.490      184
   39.505      172
   39.520      171
   39.535      157
   39.550      167
   39.565      161
   39.580      166
   39.595      163
   39.610      142
   39.625      153
   39.640      153
   39.655      134
   39.670      144
   39.685      152
   39.700      144
   39.715      145
   39.730      153
   39.745      171
   39.760      148
   39.775      157
   39.790      150
   39.805      139
   39.820      131
   39.835      120
   39.850      129
   39.865      159
   39.880      128
   39.895      163
   39.910      147
   39.925      149
   39.940      156
   39.955      176
   39.970      207
   39.985      176
   40.000      185
   40.015      197
   40.030      205
   40.045      187
   40.060      195
   40.075      227
   40.090      242
   40.105      252
   40.120      241
   40.135      235
   40.150      209
   40.165      207
   40.180      198
   40.195      190
   40.210      170
   40.225      165
   40.240      164
   40.255      176
   40.270      168
   40.285      172
   40.300      183
   40.315      177
   40.330      190
   40.345      191
   40.360      207
   40.375      230
   40.390      232
   40.405      232
   40.420      208
   40.435      212
   40.450      210
   40.465      209
   40.480      211
   40.495      214
   40.510      189
   40.525      172
   40.540      184
   40.555      168
   40.570      147
   40.585      143
   40.600      146
   40.615      128
   40.630      149
   40.645      147
   40.660      137
   40.675      147
   40.690      127
   40.705      132
   40.720      140
   40.735      149
   40.750      146
   40.765      149
   40.780      134
   40.795      135
   40.810      137
   40.825      154
   40.840      142
   40.855      137
   40.870      128
   40.885      124
   40.900      118
   40.915      123
   40.930      110
   40.945      117
   40.960      121
   40.975      119
   40.990      102
   41.005      104
   41.020      120
   41.035      118
   41.050      124
   41.065      125
   41.080      135
   41.095      137
   41.110      156
   41.125      140
   41.140      144
   41.155      129
   41.170      135
   41.185      127
   41.200      111
   41.215      139
   41.230      135
   41.245      136
   41.260      142
   41.275      133
   41.290      147
   41.305      148
   41.320      162
   41.335      153
   41.350      144
   41.365      153
   41.380      153
   41.395      153
   41.410      166
   41.425      151
   41.440      144
   41.455      154
   41.470      168
   41.485      169
   41.500      148
   41.515      155
   41.530      148
   41.545      135
   41.560      157
   41.575      170
   41.590      181
   41.605      174
   41.620      160
   41.635      155
   41.650      161
   41.665      157
   41.680      153
   41.695      164
   41.710      156
   41.725      163
   41.740      171
   41.755      168
   41.770      183
   41.785      159
   41.800      156
   41.815      150
   41.830      147
   41.845      139
   41.860      165
   41.875      174
   41.890      160
   41.905      182
   41.920      172
   41.935      161
   41.950      170
   41.965      151
   41.980      148
   41.995      154
   42.010      166
   42.025      167
   42.040      161
   42.055      157
   42.070      166
   42.085      148
   42.100      133
   42.115      140
   42.130      161
   42.145      146
   42.160      124
   42.175      148
   42.190      146
   42.205      136
   42.220      120
   42.235      131
   42.250      148
   42.265      132
   42.280      114
   42.295      132
   42.310      133
   42.325      132
   42.340      143
   42.355      142
   42.370      143
   42.385      140
   42.400      148
   42.415      145
   42.430      133
   42.445      141
   42.460      133
   42.475      122
   42.490      120
   42.505      132
   42.520      135
   42.535      124
   42.550      141
   42.565      140
   42.580      145
   42.595      149
   42.610      145
   42.625      157
   42.640      153
   42.655      152
   42.670      160
   42.685      157
   42.700      169
   42.715      157
   42.730      168
   42.745      156
   42.760      151
   42.775      164
   42.790      148
   42.805      151
   42.820      149
   42.835      152
   42.850      141
   42.865      149
   42.880      135
   42.895      134
   42.910      135
   42.925      128
   42.940      130
   42.955      128
   42.970      120
   42.985      136
   43.000      105
   43.015      113
   43.030      125
   43.045      121
   43.060      117
   43.075      137
   43.090      126
   43.105      122
   43.120      138
   43.135      127
   43.150      131
   43.165      121
   43.180      108
   43.195      102
   43.210      127
   43.225      136
   43.240      133
   43.255      127
   43.270      122
   43.285      137
   43.300      152
   43.315      148
   43.330      130
   43.345      143
   43.360      143
   43.375      123
   43.390      142
   43.405      141
   43.420      124
   43.435      127
   43.450      131
   43.465      121
   43.480      141
   43.495      124
   43.510      137
   43.525      149
   43.540      131
   43.555      153
   43.570      150
   43.585      128
   43.600      148
   43.615      136
   43.630      118
   43.645      136
   43.660      135
   43.675      145
   43.690      155
   43.705      140
   43.720      150
   43.735      151
   43.750      156
   43.765      158
   43.780      171
   43.795      177
   43.810      176
   43.825      160
   43.840      155
   43.855      139
   43.870      159
   43.885      148
   43.900      148
   43.915      144
   43.930      153
   43.945      144
   43.960      136
   43.975      141
   43.990      154
   44.005      162
   44.020      159
   44.035      177
   44.050      188
   44.065      194
   44.080      161
   44.095      149
   44.110      165
   44.125      164
   44.140      154
   44.155      163
   44.170      142
   44.185      132
   44.200      150
   44.215      149
   44.230      136
   44.245      144
   44.260      172
   44.275      197
   44.290      201
   44.305      191
   44.320      206
   44.335      191
   44.350      177
   44.365      143
   44.380      142
   44.395      146
   44.410      135
   44.425      161
   44.440      162
   44.455      144
   44.470      145
   44.485      160
   44.500      166
   44.515      162
   44.530      184
   44.545      179
   44.560      186
   44.575      168
   44.590      172
   44.605      174
   44.620      196
   44.635      201
   44.650      214
   44.665      213
   44.680      215
   44.695      208
   44.710      184
   44.725      199
   44.740      184
   44.755      185
   44.770      180
   44.785      188
   44.800      193
   44.815      185
   44.830      192
   44.845      178
   44.860      179
   44.875      159
   44.890      169
   44.905      162
   44.920      158
   44.935      151
   44.950      152
   44.965      136
   44.980      152
   44.995      148
   45.010      143
   45.025      168
   45.040      163
   45.055      172
   45.070      182
   45.085      172
   45.100      157
   45.115      145
   45.130      143
   45.145      163
   45.160      160
   45.175      138
   45.190      135
   45.205      126
   45.220      143
   45.235      121
   45.250      126
   45.265      124
   45.280      133
   45.295      107
   45.310      116
   45.325      115
   45.340      115
   45.355      107
   45.370      121
   45.385      129
   45.400      131
   45.415      123
   45.430      114
   45.445      110
   45.460      117
   45.475      119
   45.490      136
   45.505      136
   45.520      129
   45.535      129
   45.550      138
   45.565      153
   45.580      148
   45.595      116
   45.610      135
   45.625      143
   45.640      139
   45.655      135
   45.670      146
   45.685      151
   45.700      162
   45.715      182
   45.730      200
   45.745      192
   45.760      163
   45.775      161
   45.790      168
   45.805      157
   45.820      147
   45.835      119
   45.850      149
   45.865      151
   45.880      137
   45.895      147
   45.910      126
   45.925      122
   45.940      130
   45.955      141
   45.970      133
   45.985      172
