    4.000       57
    4.015       44
    4.030       52
    4.045       46
    4.060       46
    4.075       38
    4.090       50
    4.105       57
    4.120       45
    4.135       40
    4.150       42
    4.165       58
    4.180       52
    4.195       55
    4.210       48
    4.225       45
    4.240       46
    4.255       41
    4.270       50
    4.285       50
    4.300       47
    4.315       54
    4.330       54
    4.345       49
    4.360       57
    4.375       62
    4.390       54
    4.405       50
    4.420       46
    4.435       41
    4.450       42
    4.465       51
    4.480       51
    4.495       47
    4.510       59
    4.525       69
    4.540       48
    4.555       50
    4.570       46
    4.585       43
    4.600       48
    4.615       42
    4.630       46
    4.645       46
    4.660       49
    4.675       41
    4.690       44
    4.705       49
    4.720       53
    4.735       53
    4.750       57
    4.765       53
    4.780       46
    4.795       58
    4.810       47
    4.825       42
    4.840       45
    4.855       53
    4.870       46
    4.885       55
    4.900       47
    4.915       44
    4.930       49
    4.945       41
    4.960       41
    4.975       41
    4.990       40
    5.005       45
    5.020       39
    5.035       40
    5.050       35
    5.065       43
    5.080       49
    5.095       52
    5.110       47
    5.125       51
    5.140       42
    5.155       36
    5.170       44
    5.185       46
    5.200       41
    5.215       45
    5.230       44
    5.245       42
    5.260       44
    5.275       46
    5.290       41
    5.305       41
    5.320       44
    5.335       38
    5.350       35
    5.365       38
    5.380       45
    5.395       51
    5.410       39
    5.425       42
    5.440       47
    5.455       39
    5.470       36
    5.485       46
    5.500       42
    5.515       32
    5.530       37
    5.545       44
    5.560       43
    5.575       51
    5.590       43
    5.605       44
    5.620       32
    5.635       38
    5.650       33
    5.665       46
    5.680       52
    5.695       42
    5.710       46
    5.725       38
    5.740       40
    5.755       35
    5.770       31
    5.785       48
    5.800       45
    5.815       51
    5.830       47
    5.845       40
    5.860       43
    5.875       53
    5.890       47
    5.905       34
    5.920       38
    5.935       45
    5.950       52
    5.965       48
    5.980       32
    5.995       40
    6.010       47
    6.025       42
    6.040       46
    6.055       45
    6.070       49
    6.085       53
    6.100       41
    6.115       37
    6.130       44
    6.145       39
    6.160       46
    6.175       48
    6.190       40
    6.205       40
    6.220       49
    6.235       48
    6.250       44
    6.265       54
    6.280       45
    6.295       54
    6.310       61
    6.325       67
    6.340       68
    6.355       78
    6.370       78
    6.385       78
    6.400       90
    6.415       93
    6.430      107
    6.445      114
    6.460      119
    6.475      119
    6.490      142
    6.505      132
    6.520      130
    6.535      147
    6.550      171
    6.565      178
    6.580      223
    6.595      288
    6.610      380
    6.625      337
    6.640      301
    6.655      317
    6.670      318
    6.685      262
    6.700      165
    6.715       90
    6.730       52
    6.745       47
    6.760       52
    6.775       41
    6.790       37
    6.805       49
    6.820       51
    6.835       30
    6.850       44
    6.865       42
    6.880       47
    6.895       53
    6.910       46
    6.925       51
    6.940       56
    6.955       46
    6.970       48
    6.985       53
    7.000       50
    7.015       55
    7.030       49
    7.045       44
    7.060       49
    7.075       46
    7.090       50
    7.105       65
    7.120       71
    7.135       72
    7.150       75
    7.165       80
    7.180       88
    7.195      113
    7.210       96
    7.225       74
    7.240       59
    7.255       36
    7.270       21
    7.285       38
    7.300       41
    7.315       44
    7.330       53
    7.345       51
    7.360       40
    7.375       41
    7.390       38
    7.405       41
    7.420       39
    7.435       42
    7.450       40
    7.465       48
    7.480       46
    7.495       57
    7.510       53
    7.525       45
    7.540       39
    7.555       48
    7.570       37
    7.585       44
    7.600       51
    7.615       56
    7.630       53
    7.645       52
    7.660       52
    7.675       57
    7.690       46
    7.705       47
    7.720       50
    7.735       49
    7.750       38
    7.765       31
    7.780       44
    7.795       45
    7.810       43
    7.825       37
    7.840       43
    7.855       36
    7.870       31
    7.885       30
    7.900       42
    7.915       37
    7.930       35
    7.945       44
    7.960       51
    7.975       42
    7.990       45
    8.005       37
    8.020       39
    8.035       42
    8.050       34
    8.065       40
    8.080       42
    8.095       44
    8.110       39
    8.125       41
    8.140       44
    8.155       45
    8.170       49
    8.185       45
    8.200       37
    8.215       41
    8.230       45
    8.245       47
    8.260       40
    8.275       47
    8.290       40
    8.305       48
    8.320       42
    8.335       43
    8.350       41
    8.365       39
    8.380       44
    8.395       42
    8.410       40
    8.425       40
    8.440       53
    8.455       47
    8.470       37
    8.485       44
    8.500       40
    8.515       45
    8.530       38
    8.545       41
    8.560       42
    8.575       51
    8.590       48
    8.605       50
    8.620       45
    8.635       51
    8.650       44
    8.665       46
    8.680       33
    8.695       36
    8.710       50
    8.725       37
    8.740       46
    8.755       45
    8.770       27
    8.785       41
    8.800       45
    8.815       42
    8.830       42
    8.845       48
    8.860       40
    8.875       39
    8.890       39
    8.905       44
    8.920       39
    8.935       40
    8.950       50
    8.965       42
    8.980       33
    8.995       36
    9.010       44
    9.025       46
    9.040       38
    9.055       42
    9.070       41
    9.085       52
    9.100       34
    9.115       47
    9.130       45
    9.145       44
    9.160       31
    9.175       43
    9.190       48
    9.205       41
    9.220       38
    9.235       48
    9.250       49
    9.265       47
    9.280       49
    9.295       40
    9.310       34
    9.325       40
    9.340       41
    9.355       48
    9.370       35
    9.385       44
    9.400       53
    9.415       41
    9.430       41
    9.445       44
    9.460       38
    9.475       44
    9.490       46
    9.505       41
    9.520       35
    9.535       47
    9.550       45
    9.565       45
    9.580       40
    9.595       40
    9.610       48
    9.625       47
    9.640       51
    9.655       43
    9.670       42
    9.685       47
    9.700       46
    9.715       50
    9.730       53
    9.745       41
    9.760       60
    9.775       48
    9.790       51
    9.805       56
    9.820       56
    9.835       44
    9.850       43
    9.865       55
    9.880       47
    9.895       40
    9.910       35
    9.925       41
    9.940       45
    9.955       43
    9.970       43
    9.985       44
   10.000       40
   10.015       46
   10.030       49
   10.045       52
   10.060       47
   10.075       43
   10.090       40
   10.105       49
   10.120       46
   10.135       45
   10.150       41
   10.165       42
   10.180       49
   10.195       56
   10.210       48
   10.225       45
   10.240       41
   10.255       54
   10.270       49
   10.285       60
   10.300       52
   10.315       56
   10.330       49
   10.345       58
   10.360       58
   10.375       48
   10.390       59
   10.405       53
   10.420       50
   10.435       59
   10.450       63
   10.465       82
   10.480       72
   10.495       67
   10.510       80
   10.525       72
   10.540       55
   10.555       50
   10.570       51
   10.585       47
   10.600       55
   10.615       67
   10.630       48
   10.645       44
   10.660       59
   10.675       56
   10.690       65
   10.705       73
   10.720       81
   10.735       92
   10.750       97
   10.765      114
   10.780      131
   10.795      140
   10.810      142
   10.825      146
   10.840      171
   10.855      208
   10.870      240
   10.885      243
   10.900      183
   10.915      130
   10.930       94
   10.945       78
   10.960       49
   10.975       49
   10.990       51
   11.005       42
   11.020       42
   11.035       45
   11.050       48
   11.065       52
   11.080       51
   11.095       44
   11.110       50
   11.125       48
   11.140       50
   11.155       52
   11.170       48
   11.185       58
   11.200       64
   11.215       60
   11.230       62
   11.245       91
   11.260       87
   11.275       56
   11.290       65
   11.305       55
   11.320       57
   11.335       56
   11.350       53
   11.365       53
   11.380       53
   11.395       53
   11.410       58
   11.425       62
   11.440       67
   11.455       61
   11.470       62
   11.485       60
   11.500       46
   11.515       52
   11.530       45
   11.545       48
   11.560       49
   11.575       48
   11.590       43
   11.605       32
   11.620       46
   11.635       42
   11.650       39
   11.665       43
   11.680       51
   11.695       54
   11.710       58
   11.725       63
   11.740       66
   11.755       52
   11.770       53
   11.785       61
   11.800       69
   11.815       80
   11.830       66
   11.845       85
   11.860       66
   11.875       81
   11.890       89
   11.905       90
   11.920       77
   11.935       63
   11.950       58
   11.965       66
   11.980       81
   11.995       75
   12.010       64
   12.025       63
   12.040       65
   12.055       49
   12.070       58
   12.085       67
   12.100       58
   12.115       50
   12.130       51
   12.145       53
   12.160       51
   12.175       47
   12.190       51
   12.205       45
   12.220       48
   12.235       48
   12.250       58
   12.265       43
   12.280       47
   12.295       53
   12.310       41
   12.325       42
   12.340       45
   12.355       37
   12.370       43
   12.385       49
   12.400       44
   12.415       51
   12.430       40
   12.445       52
   12.460       55
   12.475       65
   12.490       65
   12.505       61
   12.520       56
   12.535       66
   12.550       64
   12.565       81
   12.580       89
   12.595       94
   12.610       99
   12.625      105
   12.640      148
   12.655      150
   12.670      188
   12.685      203
   12.700      258
   12.715      228
   12.730      218
   12.745      213
   12.760      197
   12.775      183
   12.790      162
   12.805      123
   12.820       99
   12.835       80
   12.850       63
   12.865       65
   12.880       58
   12.895       59
   12.910       66
   12.925       90
   12.940       86
   12.955       88
   12.970       94
   12.985       95
   13.000      102
   13.015      114
   13.030      130
   13.045      153
   13.060      182
   13.075      219
   13.090      193
   13.105      168
   13.120      163
   13.135      155
   13.150      172
   13.165      182
   13.180      212
   13.195      248
   13.210      286
   13.225      364
   13.240      410
   13.255      467
   13.270      576
   13.285      509
   13.300      448
   13.315      396
   13.330      414
   13.345      584
   13.360      722
   13.375      867
   13.390      815
   13.405      553
   13.420      377
   13.435      210
   13.450      127
   13.465      114
   13.480      105
   13.495      113
   13.510      115
   13.525      123
   13.540      138
   13.555      181
   13.570      189
   13.585      207
   13.600      250
   13.615      287
   13.630      296
   13.645      298
   13.660      250
   13.675      216
   13.690      155
   13.705       96
   13.720       73
   13.735       74
   13.750       65
   13.765       62
   13.780       56
   13.795       60
   13.810       63
   13.825       64
   13.840       66
   13.855       64
   13.870       70
   13.885       82
   13.900       86
   13.915       65
   13.930       62
   13.945       59
   13.960       54
   13.975       51
   13.990       44
   14.005       53
   14.020       57
   14.035       60
   14.050       56
   14.065       54
   14.080       58
   14.095       57
   14.110       51
   14.125       49
   14.140       60
   14.155       60
   14.170       66
   14.185       74
   14.200       70
   14.215       69
   14.230       86
   14.245       93
   14.260      102
   14.275      118
   14.290      133
   14.305      151
   14.320      166
   14.335      199
   14.350      218
   14.365      205
   14.380      194
   14.395      154
   14.410      138
   14.425      157
   14.440      166
   14.455      163
   14.470      137
   14.485      148
   14.500      141
   14.515      167
   14.530      188
   14.545      232
   14.560      273
   14.575      308
   14.590      222
   14.605      146
   14.620      101
   14.635       69
   14.650       68
   14.665       60
   14.680       61
   14.695       66
   14.710       71
   14.725       79
   14.740       57
   14.755       67
   14.770       49
   14.785       64
   14.800       53
   14.815       60
   14.830       63
   14.845       63
   14.860       74
   14.875       60
   14.890       70
   14.905       60
   14.920       82
   14.935       81
   14.950       77
   14.965       94
   14.980      103
   14.995      130
   15.010      158
   15.025      179
   15.040      201
   15.055      265
   15.070      287
   15.085      351
   15.100      384
   15.115      422
   15.130      547
   15.145      713
   15.160      721
   15.175      575
   15.190      401
   15.205      267
   15.220      171
   15.235      122
   15.250      134
   15.265      154
   15.280      141
   15.295      144
   15.310      152
   15.325      149
   15.340      169
   15.355      185
   15.370      198
   15.385      230
   15.400      238
   15.415      205
   15.430      157
   15.445      143
   15.460      138
   15.475      115
   15.490      107
   15.505      106
   15.520      102
   15.535      107
   15.550      139
   15.565      161
   15.580      198
   15.595      218
   15.610      238
   15.625      301
   15.640      357
   15.655      349
   15.670      316
   15.685      271
   15.700      196
   15.715      153
   15.730      175
   15.745      182
   15.760      170
   15.775      156
   15.790      166
   15.805      158
   15.820      179
   15.835      202
   15.850      221
   15.865      176
   15.880      175
   15.895      125
   15.910       82
   15.925       75
   15.940       65
   15.955       69
   15.970       67
   15.985       79
   16.000       69
   16.015       74
   16.030       74
   16.045       86
   16.060       80
   16.075       95
   16.090      111
   16.105      131
   16.120      125
   16.135      161
   16.150      196
   16.165      223
   16.180      238
   16.195      255
   16.210      271
   16.225      226
   16.240      203
   16.255      149
   16.270      112
   16.285       87
   16.300       84
   16.315      106
   16.330      106
   16.345      118
   16.360      110
   16.375      143
   16.390      137
   16.405      145
   16.420      169
   16.435      207
   16.450      228
   16.465      280
   16.480      369
   16.495      478
   16.510      487
   16.525      402
   16.540      310
   16.555      267
   16.570      256
   16.585      258
   16.600      305
   16.615      315
   16.630      301
   16.645      234
   16.660      227
   16.675      225
   16.690      222
   16.705      206
   16.720      219
   16.735      199
   16.750      232
   16.765      280
   16.780      297
   16.795      289
   16.810      251
   16.825      272
   16.840      246
   16.855      242
   16.870      248
   16.885      201
   16.900      162
   16.915      136
   16.930       96
   16.945       74
   16.960       71
   16.975       81
   16.990       97
   17.005      115
   17.020      125
   17.035      133
   17.050      162
   17.065      182
   17.080      203
   17.095      234
   17.110      258
   17.125      213
   17.140      173
   17.155      169
   17.170      145
   17.185      177
   17.200      187
   17.215      188
   17.230      240
   17.245      322
   17.260      350
   17.275      353
   17.290      360
   17.305      339
   17.320      286
   17.335      209
   17.350      136
   17.365      110
   17.380      107
   17.395      119
   17.410      113
   17.425      111
   17.440      105
   17.455      104
   17.470      111
   17.485      101
   17.500      126
   17.515      146
   17.530      161
   17.545      209
   17.560      223
   17.575      199
   17.590      156
   17.605      115
   17.620      101
   17.635       90
   17.650       91
   17.665       81
   17.680       99
   17.695      103
   17.710      110
   17.725      135
   17.740      141
   17.755      121
   17.770       99
   17.785       95
   17.800       99
   17.815      101
   17.830       92
   17.845       93
   17.860       94
   17.875       86
   17.890       93
   17.905       80
   17.920       75
   17.935       85
   17.950       73
   17.965       71
   17.980       67
   17.995       68
   18.010       69
   18.025       69
   18.040       71
   18.055       60
   18.070       54
   18.085       61
   18.100       59
   18.115       51
   18.130       56
   18.145       56
   18.160       62
   18.175       62
   18.190       83
   18.205       72
   18.220       72
   18.235       86
   18.250       92
   18.265      101
   18.280      122
   18.295      143
   18.310      143
   18.325      160
   18.340      167
   18.355      201
   18.370      219
   18.385      215
   18.400      209
   18.415      165
   18.430      124
   18.445       91
   18.460       82
   18.475       69
   18.490       82
   18.505       65
   18.520       64
   18.535       73
   18.550       75
   18.565       85
   18.580       98
   18.595       92
   18.610      105
   18.625      118
   18.640      145
   18.655      134
   18.670      122
   18.685      121
   18.700      128
   18.715      119
   18.730      131
   18.745      149
   18.760      121
   18.775      110
   18.790      101
   18.805       93
   18.820       75
   18.835       74
   18.850       69
   18.865       64
   18.880       73
   18.895       67
   18.910       81
   18.925       68
   18.940       96
   18.955       92
   18.970       87
   18.985       77
   19.000       75
   19.015       93
   19.030       92
   19.045       89
   19.060      102
   19.075       91
   19.090       76
   19.105       79
   19.120       77
   19.135       69
   19.150       81
   19.165       75
   19.180       70
   19.195       59
   19.210       73
   19.225       70
   19.240       51
   19.255       55
   19.270       62
   19.285       61
   19.300       60
   19.315       50
   19.330       57
   19.345       68
   19.360       64
   19.375       57
   19.390       67
   19.405       61
   19.420       53
   19.435       64
   19.450       76
   19.465       70
   19.480       69
   19.495       70
   19.510       68
   19.525       85
   19.540       78
   19.555       92
   19.570      111
   19.585      129
   19.600      121
   19.615      129
   19.630      135
   19.645      145
   19.660      127
   19.675      144
   19.690      131
   19.705      130
   19.720      117
   19.735      105
   19.750      105
   19.765       97
   19.780       82
   19.795       90
   19.810       82
   19.825       87
   19.840       94
   19.855      114
   19.870      136
   19.885      161
   19.900      179
   19.915      231
   19.930      284
   19.945      354
   19.960      418
   19.975      494
   19.990      440
   20.005      341
   20.020      271
   20.035      238
   20.050      242
   20.065      257
   20.080      271
   20.095      287
   20.110      238
   20.125      228
   20.140      195
   20.155      158
   20.170      130
   20.185       95
   20.200       85
   20.215       71
   20.230       77
   20.245       78
   20.260       91
   20.275       91
   20.290       88
   20.305       84
   20.320       74
   20.335       75
   20.350       61
   20.365       69
   20.380       60
   20.395       61
   20.410       64
   20.425       70
   20.440       70
   20.455       72
   20.470       86
   20.485       66
   20.500       71
   20.515       64
   20.530       71
   20.545       63
   20.560       57
   20.575       55
   20.590       71
   20.605       74
   20.620       80
   20.635       83
   20.650       97
   20.665       82
   20.680       76
   20.695       66
   20.710       78
   20.725       68
   20.740       80
   20.755       80
   20.770       87
   20.785       98
   20.800       85
   20.815       99
   20.830       98
   20.845      110
   20.860      124
   20.875      110
   20.890      138
   20.905      118
   20.920      120
   20.935      148
   20.950      152
   20.965      134
   20.980      103
   20.995       81
   21.010       83
   21.025       73
   21.040       63
   21.055       71
   21.070       65
   21.085       73
   21.100       69
   21.115       64
   21.130       66
   21.145       61
   21.160       68
   21.175       58
   21.190       51
   21.205       67
   21.220       64
   21.235       64
   21.250       69
   21.265       68
   21.280       93
   21.295       77
   21.310       90
   21.325      100
   21.340       92
   21.355       87
   21.370       67
   21.385       63
   21.400       52
   21.415       58
   21.430       71
   21.445       71
   21.460       77
   21.475       75
   21.490       76
   21.505       67
   21.520       58
   21.535       65
   21.550       63
   21.565       65
   21.580       81
   21.595       70
   21.610       94
   21.625      104
   21.640       99
   21.655      122
   21.670      165
   21.685      160
   21.700      159
   21.715      138
   21.730      119
   21.745      110
   21.760      114
   21.775      113
   21.790      155
   21.805      189
   21.820      225
   21.835      295
   21.850      365
   21.865      411
   21.880      360
   21.895      296
   21.910      182
   21.925      135
   21.940      115
   21.955       98
   21.970      121
   21.985      112
   22.000       93
   22.015       98
   22.030       94
   22.045       73
   22.060       73
   22.075       62
   22.090       61
   22.105       58
   22.120       47
   22.135       50
   22.150       45
   22.165       57
   22.180       53
   22.195       63
   22.210       68
   22.225       58
   22.240       55
   22.255       65
   22.270       62
   22.285       58
   22.300       62
   22.315       60
   22.330       60
   22.345       65
   22.360       67
   22.375       72
   22.390       82
   22.405       71
   22.420       72
   22.435       80
   22.450       87
   22.465       90
   22.480       80
   22.495       73
   22.510       71
   22.525       58
   22.540       59
   22.555       55
   22.570       67
   22.585       74
   22.600       79
   22.615       85
   22.630       75
   22.645       92
   22.660       97
   22.675       94
   22.690      121
   22.705      134
   22.720      112
   22.735      110
   22.750       98
   22.765       83
   22.780       81
   22.795       79
   22.810       78
   22.825       90
   22.840      108
   22.855      120
   22.870      129
   22.885      114
   22.900      124
   22.915      114
   22.930      125
   22.945      116
   22.960      103
   22.975      101
   22.990       89
   23.005       79
   23.020       70
   23.035       63
   23.050       59
   23.065       64
   23.080       68
   23.095       62
   23.110       72
   23.125       84
   23.140       79
   23.155       91
   23.170       70
   23.185       83
   23.200       73
   23.215       87
   23.230       91
   23.245       89
   23.260       97
   23.275      103
   23.290      105
   23.305       87
   23.320       77
   23.335       57
   23.350       51
   23.365       55
   23.380       66
   23.395       59
   23.410       45
   23.425       55
   23.440       54
   23.455       62
   23.470       72
   23.485       53
   23.500       63
   23.515       58
   23.530       50
   23.545       53
   23.560       53
   23.575       57
   23.590       58
   23.605       52
   23.620       52
   23.635       48
   23.650       41
   23.665       49
   23.680       54
   23.695       61
   23.710       54
   23.725       53
   23.740       63
   23.755       54
   23.770       63
   23.785       67
   23.800       75
   23.815       86
   23.830       64
   23.845       77
   23.860       61
   23.875       69
   23.890       69
   23.905       78
   23.920       60
   23.935       72
   23.950       75
   23.965       71
   23.980       70
   23.995       74
   24.010       73
   24.025       78
   24.040       88
   24.055       96
   24.070       89
   24.085       86
   24.100       72
   24.115       72
   24.130       78
   24.145       66
   24.160       54
   24.175       60
   24.190       58
   24.205       64
   24.220       63
   24.235       51
   24.250       61
   24.265       70
   24.280       73
   24.295       62
   24.310       75
   24.325       99
   24.340       81
   24.355       64
   24.370       62
   24.385       61
   24.400       48
   24.415       54
   24.430       60
   24.445       60
   24.460       56
   24.475       53
   24.490       48
   24.505       53
   24.520       59
   24.535       49
   24.550       53
   24.565       61
   24.580       75
   24.595       78
   24.610       65
   24.625       74
   24.640      100
   24.655       86
   24.670       80
   24.685       83
   24.700      101
   24.715       90
   24.730       92
   24.745       83
   24.760       72
   24.775       66
   24.790       76
   24.805       74
   24.820       65
   24.835       60
   24.850       56
   24.865       58
   24.880       57
   24.895       65
   24.910       63
   24.925       55
   24.940       50
   24.955       45
   24.970       72
   24.985       70
   25.000       78
   25.015       93
   25.030      105
   25.045      104
   25.060      122
   25.075      101
   25.090       88
   25.105       74
   25.120       72
   25.135       57
   25.150       59
   25.165       65
   25.180       66
   25.195       72
   25.210       62
   25.225       67
   25.240       75
   25.255       77
   25.270       73
   25.285       81
   25.300       71
   25.315       64
   25.330       77
   25.345       52
   25.360       78
   25.375       61
   25.390       64
   25.405       63
   25.420       63
   25.435       69
   25.450       79
   25.465       97
   25.480       98
   25.495       76
   25.510       92
   25.525       71
   25.540       60
   25.555       69
   25.570       71
   25.585       77
   25.600       80
   25.615       74
   25.630       71
   25.645       70
   25.660       73
   25.675       84
   25.690       95
   25.705      103
   25.720      101
   25.735      112
   25.750      114
   25.765      110
   25.780       96
   25.795       90
   25.810       78
   25.825       75
   25.840       87
   25.855       82
   25.870       88
   25.885       77
   25.900       88
   25.915       99
   25.930      110
   25.945      118
   25.960      122
   25.975      125
   25.990      104
   26.005       87
   26.020       72
   26.035       58
   26.050       67
   26.065       69
   26.080       71
   26.095       67
   26.110       71
   26.125       66
   26.140       82
   26.155       67
   26.170       59
   26.185       76
   26.200       84
   26.215       87
   26.230       96
   26.245      115
   26.260      117
   26.275      100
   26.290       83
   26.305       74
   26.320       73
   26.335       74
   26.350       67
   26.365       69
   26.380       72
   26.395       73
   26.410       79
   26.425       80
   26.440       78
   26.455       81
   26.470       75
   26.485       73
   26.500       65
   26.515       67
   26.530       62
   26.545       69
   26.560       66
   26.575       68
   26.590       72
   26.605       78
   26.620       68
   26.635       60
   26.650       76
   26.665       71
   26.680       71
   26.695       70
   26.710       75
   26.725       70
   26.740       77
   26.755       71
   26.770       79
   26.785       68
   26.800       61
   26.815       58
   26.830       56
   26.845       50
   26.860       58
   26.875       85
   26.890       75
   26.905       87
   26.920       92
   26.935       90
   26.950      119
   26.965      128
   26.980      126
   26.995      133
   27.010      129
   27.025      115
   27.040      131
   27.055      122
   27.070       98
   27.085       92
   27.100       83
   27.115       80
   27.130       69
   27.145       67
   27.160       67
   27.175       81
   27.190       67
   27.205       61
   27.220       63
   27.235       70
   27.250       69
   27.265       63
   27.280       71
   27.295       76
   27.310       81
   27.325       67
   27.340       72
   27.355       73
   27.370       76
   27.385       80
   27.400       83
   27.415       79
   27.430       82
   27.445       77
   27.460       71
   27.475       76
   27.490       86
   27.505       88
   27.520       90
   27.535       86
   27.550       93
   27.565       99
   27.580       89
   27.595      102
   27.610      130
   27.625      142
   27.640      149
   27.655      151
   27.670      162
   27.685      157
   27.700      148
   27.715      123
   27.730      128
   27.745      115
   27.760      105
   27.775       93
   27.790       78
   27.805       78
   27.820       76
   27.835       61
   27.850       80
   27.865       94
   27.880       82
   27.895       74
   27.910       95
   27.925      103
   27.940      114
   27.955      102
   27.970      112
   27.985      106
   28.000       75
   28.015       73
   28.030       81
   28.045       88
   28.060       72
   28.075       68
   28.090       70
   28.105       84
   28.120       82
   28.135       69
   28.150       90
   28.165       77
   28.180       75
   28.195       70
   28.210       61
   28.225       60
   28.240       62
   28.255       63
   28.270       63
   28.285       79
   28.300       88
   28.315       66
   28.330       87
   28.345       82
   28.360      103
   28.375       98
   28.390       95
   28.405       91
   28.420       81
   28.435       94
   28.450       89
   28.465       98
   28.480       92
   28.495      101
   28.510       88
   28.525       82
   28.540       79
   28.555       67
   28.570       54
   28.585       57
   28.600       56
   28.615       58
   28.630       66
   28.645       73
   28.660       65
   28.675       61
   28.690       69
   28.705       81
   28.720       84
   28.735       82
   28.750       83
   28.765       61
   28.780       65
   28.795       56
   28.810       64
   28.825       67
   28.840       62
   28.855       61
   28.870       71
   28.885       64
   28.900       86
   28.915       84
   28.930       91
   28.945      100
   28.960      100
   28.975       92
   28.990       86
   29.005       80
   29.020       82
   29.035       77
   29.050       80
   29.065       78
   29.080       79
   29.095       87
   29.110       83
   29.125      102
   29.140      106
   29.155       88
   29.170      100
   29.185       87
   29.200       89
   29.215       85
   29.230       80
   29.245       78
   29.260       89
   29.275       79
   29.290       79
   29.305       91
   29.320       77
   29.335       83
   29.350       76
   29.365       73
   29.380       65
   29.395       75
   29.410       68
   29.425       67
   29.440       62
   29.455       69
   29.470       78
   29.485       64
   29.500       53
   29.515       53
   29.530       67
   29.545       71
   29.560       65
   29.575       67
   29.590       67
   29.605       83
   29.620       78
   29.635       92
   29.650       93
   29.665       98
   29.680       80
   29.695       82
   29.710       99
   29.725       79
   29.740       88
   29.755       96
   29.770       96
   29.785       95
   29.800       86
   29.815       86
   29.830       89
   29.845       82
   29.860       71
   29.875       78
   29.890       66
   29.905       69
   29.920       84
   29.935       64
   29.950       56
   29.965       52
   29.980       52
   29.995       52
   30.010       66
   30.025       50
   30.040       56
   30.055       61
   30.070       60
   30.085       57
   30.100       63
   30.115       58
   30.130       52
   30.145       49
   30.160       57
   30.175       68
   30.190       60
   30.205       57
   30.220       58
   30.235       55
   30.250       56
   30.265       70
   30.280       63
   30.295       59
   30.310       61
   30.325       69
   30.340       58
   30.355       60
   30.370       65
   30.385       61
   30.400       70
   30.415       70
   30.430       70
   30.445       63
   30.460       75
   30.475       77
   30.490       83
   30.505       73
   30.520       71
   30.535       68
   30.550       70
   30.565       72
   30.580       77
   30.595       75
   30.610       75
   30.625       85
   30.640       72
   30.655      108
   30.670       86
   30.685       74
   30.700       90
   30.715       89
   30.730      102
   30.745       92
   30.760       77
   30.775       75
   30.790       67
   30.805       72
   30.820       66
   30.835       71
   30.850       75
   30.865       67
   30.880       75
   30.895       74
   30.910       64
   30.925       62
   30.940       69
   30.955       65
   30.970       66
   30.985       83
   31.000       92
   31.015       78
   31.030       79
   31.045       79
   31.060       71
   31.075       70
   31.090       74
   31.105       86
   31.120      100
   31.135       81
   31.150       67
   31.165       67
   31.180       80
   31.195       65
   31.210       70
   31.225       68
   31.240       71
   31.255       60
   31.270       78
   31.285       87
   31.300       71
   31.315       69
   31.330       61
   31.345       70
   31.360       70
   31.375       84
   31.390       75
   31.405       84
   31.420       72
   31.435       62
   31.450       63
   31.465       64
   31.480       64
   31.495       68
   31.510       70
   31.525       71
   31.540       75
   31.555       78
   31.570       71
   31.585       78
   31.600       75
   31.615       81
   31.630       78
   31.645       75
   31.660       78
   31.675       75
   31.690       76
   31.705       90
   31.720       80
   31.735       79
   31.750       89
   31.765       76
   31.780       83
   31.795      103
   31.810      104
   31.825       97
   31.840       91
   31.855       80
   31.870       80
   31.885       84
   31.900       75
   31.915       88
   31.930       77
   31.945       79
   31.960       76
   31.975       79
   31.990       85
   32.005       81
   32.020       90
   32.035       86
   32.050       83
   32.065       68
   32.080       77
   32.095       85
   32.110       86
   32.125       71
   32.140       74
   32.155       71
   32.170       76
   32.185       62
   32.200       77
   32.215       75
   32.230       70
   32.245       69
   32.260       78
   32.275       82
   32.290       67
   32.305       61
   32.320       62
   32.335       63
   32.350       72
   32.365       62
   32.380       58
   32.395       67
   32.410       70
   32.425       65
   32.440       61
   32.455       68
   32.470       65
   32.485       68
   32.500       66
   32.515       61
   32.530       69
   32.545       56
   32.560       55
   32.575       60
   32.590       62
   32.605       60
   32.620       63
   32.635       61
   32.650       62
   32.665       54
   32.680       70
   32.695       67
   32.710       57
   32.725       59
   32.740       61
   32.755       63
   32.770       57
   32.785       64
   32.800       55
   32.815       60
   32.830       51
   32.845       50
   32.860       54
   32.875       61
   32.890       60
   32.905       69
   32.920       73
   32.935       67
   32.950       62
   32.965       66
   32.980       58
   32.995       63
   33.010       74
   33.025       76
   33.040       80
   33.055       77
   33.070       79
   33.085       77
   33.100       72
   33.115       70
   33.130       65
   33.145       63
   33.160       70
   33.175       58
   33.190       52
   33.205       58
   33.220       76
   33.235       66
   33.250       64
   33.265       66
   33.280       61
   33.295       64
   33.310       54
   33.325       57
   33.340       65
   33.355       58
   33.370       53
   33.385       79
   33.400       67
   33.415       65
   33.430       69
   33.445       68
   33.460       83
   33.475       88
   33.490       81
   33.505       69
   33.520       83
   33.535       80
   33.550       85
   33.565       96
   33.580       99
   33.595       91
   33.610      110
   33.625      103
   33.640       71
   33.655       72
   33.670       68
   33.685       79
   33.700       74
   33.715       81
   33.730       70
   33.745       72
   33.760       69
   33.775       69
   33.790       82
   33.805       82
   33.820       75
   33.835       63
   33.850       76
   33.865       96
   33.880       82
   33.895       94
   33.910       96
   33.925       83
   33.940       74
   33.955       75
   33.970       76
   33.985       75
   34.000       64
   34.015       71
   34.030       79
   34.045       74
   34.060       71
   34.075       73
   34.090       63
   34.105       62
   34.120       63
   34.135       80
   34.150       81
   34.165       63
   34.180       63
   34.195       74
   34.210       65
   34.225       70
   34.240       62
   34.255       55
   34.270       61
   34.285       60
   34.300       52
   34.315       53
   34.330       64
   34.345       58
   34.360       49
   34.375       43
   34.390       47
   34.405       55
   34.420       57
   34.435       53
   34.450       66
   34.465       54
   34.480       61
   34.495       55
   34.510       56
   34.525       65
   34.540       78
   34.555       65
   34.570       61
   34.585       63
   34.600       74
   34.615       76
   34.630       71
   34.645       77
   34.660       65
   34.675       59
   34.690       64
   34.705       61
   34.720       61
   34.735       69
   34.750       60
   34.765       57
   34.780       67
   34.795       58
   34.810       62
   34.825       52
   34.840       59
   34.855       80
   34.870       91
   34.885       76
   34.900       69
   34.915       73
   34.930       71
   34.945       59
   34.960       57
   34.975       54
   34.990       47
   35.005       55
   35.020       58
   35.035       59
   35.050       56
   35.065       68
   35.080       54
   35.095       58
   35.110       60
   35.125       61
   35.140       56
   35.155       63
   35.170       73
   35.185       69
   35.200       64
   35.215       63
   35.230       69
   35.245       80
   35.260       66
   35.275       66
   35.290       69
   35.305       62
   35.320       71
   35.335       77
   35.350       76
   35.365       67
   35.380       62
   35.395       66
   35.410       79
   35.425       82
   35.440       80
   35.455       75
   35.470       76
   35.485       68
   35.500       71
   35.515       86
   35.530       91
   35.545       76
   35.560       75
   35.575       81
   35.590       82
   35.605       90
   35.620       76
   35.635       79
   35.650       87
   35.665       86
   35.680       82
   35.695       73
   35.710       75
   35.725       72
   35.740       88
   35.755       69
   35.770       59
   35.785       57
   35.800       53
   35.815       56
   35.830       63
   35.845       50
   35.860       68
   35.875       75
   35.890       62
   35.905       62
   35.920       53
   35.935       60
   35.950       54
   35.965       53
   35.980       54
   35.995       68
   36.010       53
   36.025       60
   36.040       63
   36.055       57
   36.070       58
   36.085       53
   36.100       68
   36.115       65
   36.130       50
   36.145       50
   36.160       48
   36.175       53
   36.190       62
   36.205       55
   36.220       62
   36.235       55
   36.250       57
   36.265       57
   36.280       54
   36.295       69
   36.310       59
   36.325       50
   36.340       53
   36.355       65
   36.370       57
   36.385       65
   36.400       77
   36.415       71
   36.430       70
   36.445       55
   36.460       60
   36.475       51
   36.490       53
   36.505       66
   36.520       57
   36.535       55
   36.550       42
   36.565       51
   36.580       62
   36.595       72
   36.610       68
   36.625       52
   36.640       53
   36.655       52
   36.670       56
   36.685       49
   36.700       53
   36.715       55
   36.730       50
   36.745       59
   36.760       53
   36.775       49
   36.790       64
   36.805       60
   36.820       46
   36.835       52
   36.850       65
   36.865       68
   36.880       71
   36.895       54
   36.910       64
   36.925       57
   36.940       65
   36.955       53
   36.970       54
   36.985       72
   37.000       66
   37.015       63
   37.030       52
   37.045       55
   37.060       63
   37.075       54
   37.090       70
   37.105       62
   37.120       64
   37.135       71
   37.150       64
   37.165       64
   37.180       66
   37.195       73
   37.210       63
   37.225       63
   37.240       71
   37.255       69
   37.270       62
   37.285       55
   37.300       58
   37.315       58
   37.330       67
   37.345       61
   37.360       60
   37.375       58
   37.390       60
   37.405       59
   37.420       60
   37.435       64
   37.450       71
   37.465       57
   37.480       46
   37.495       51
   37.510       54
   37.525       58
   37.540       52
   37.555       48
   37.570       38
   37.585       41
   37.600       51
   37.615       50
   37.630       47
   37.645       40
   37.660       45
   37.675       44
   37.690       44
   37.705       52
   37.720       61
   37.735       56
   37.750       50
   37.765       56
   37.780       53
   37.795       56
   37.810       47
   37.825       52
   37.840       48
   37.855       54
   37.870       65
   37.885       58
   37.900       53
   37.915       49
   37.930       55
   37.945       51
   37.960       50
   37.975       54
   37.990       55
   38.005       68
   38.020       73
   38.035       57
   38.050       57
   38.065       64
   38.080       54
   38.095       53
   38.110       53
   38.125       55
   38.140       68
   38.155       62
   38.170       54
   38.185       51
   38.200       63
   38.215       59
   38.230       51
   38.245       65
   38.260       57
   38.275       50
   38.290       54
   38.305       56
   38.320       60
   38.335       57
   38.350       56
   38.365       44
   38.380       52
   38.395       61
   38.410       65
   38.425       70
   38.440       66
   38.455       69
   38.470       67
   38.485       65
   38.500       62
   38.515       59
   38.530       58
   38.545       43
   38.560       53
   38.575       47
   38.590       51
   38.605       47
   38.620       57
   38.635       54
   38.650       47
   38.665       50
   38.680       51
   38.695       61
   38.710       65
   38.725       48
   38.740       63
   38.755       48
   38.770       46
   38.785       59
   38.800       54
   38.815       52
   38.830       45
   38.845       54
   38.860       41
   38.875       64
   38.890       64
   38.905       66
   38.920       58
   38.935       61
   38.950       54
   38.965       52
   38.980       51
   38.995       53
   39.010       58
   39.025       59
   39.040       57
   39.055       50
   39.070       56
   39.085       50
   39.100       56
   39.115       54
   39.130       47
   39.145       48
   39.160       51
   39.175       54
   39.190       57
   39.205       58
   39.220       54
   39.235       53
   39.250       51
   39.265       48
   39.280       50
   39.295       40
   39.310       56
   39.325       49
   39.340       54
   39.355       59
   39.370       64
   39.385       59
   39.400       58
   39.415       49
   39.430       48
   39.445       45
   39.460       61
   39.475       61
   39.490       49
   39.505       42
   39.520       45
   39.535       33
   39.550       45
   39.565       39
   39.580       45
   39.595       51
   39.610       53
   39.625       51
   39.640       49
   39.655       50
   39.670       56
   39.685       56
   39.700       48
   39.715       46
   39.730       50
   39.745       64
   39.760       51
   39.775       48
   39.790       52
   39.805       57
   39.820       58
   39.835       61
   39.850       51
   39.865       47
   39.880       53
   39.895       59
   39.910       62
   39.925       58
   39.940       53
   39.955       62
   39.970       57
   39.985       58
   40.000       55
   40.015       61
   40.030       56
   40.045       46
   40.060       47
   40.075       60
   40.090       69
   40.105       50
   40.120       52
   40.135       51
   40.150       45
   40.165       46
   40.180       47
   40.195       46
   40.210       56
   40.225       54
   40.240       50
   40.255       50
   40.270       59
   40.285       59
   40.300       64
   40.315       53
   40.330       58
   40.345       46
   40.360       52
   40.375       35
   40.390       43
   40.405       44
   40.420       54
   40.435       54
   40.450       46
   40.465       54
   40.480       49
   40.495       48
   40.510       52
   40.525       58
   40.540       62
   40.555       56
   40.570       56
   40.585       67
   40.600       59
   40.615       58
   40.630       56
   40.645       59
   40.660       47
   40.675       52
   40.690       48
   40.705       51
   40.720       45
   40.735       48
   40.750       54
   40.765       47
   40.780       43
   40.795       45
   40.810       48
   40.825       55
   40.840       54
   40.855       56
   40.870       51
   40.885       54
   40.900       54
   40.915       54
   40.930       59
   40.945       50
   40.960       52
   40.975       51
   40.990       48
   41.005       52
   41.020       56
   41.035       40
   41.050       43
   41.065       45
   41.080       39
   41.095       35
   41.110       46
   41.125       38
   41.140       44
   41.155       45
   41.170       41
   41.185       45
   41.200       50
   41.215       49
   41.230       46
   41.245       42
   41.260       59
   41.275       49
   41.290       56
   41.305       47
   41.320       47
   41.335       49
   41.350       45
   41.365       42
   41.380       44
   41.395       42
   41.410       42
   41.425       39
   41.440       46
   41.455       48
   41.470       39
   41.485       33
   41.500       34
   41.515       47
   41.530       49
   41.545       41
   41.560       51
   41.575       51
   41.590       45
   41.605       48
   41.620       61
   41.635       62
   41.650       60
   41.665       49
   41.680       50
   41.695       51
   41.710       49
   41.725       46
   41.740       38
   41.755       46
   41.770       51
   41.785       50
   41.800       52
   41.815       57
   41.830       46
   41.845       62
   41.860       48
   41.875       50
   41.890       52
   41.905       44
   41.920       55
   41.935       56
   41.950       42
   41.965       57
   41.980       50
   41.995       40
   42.010       49
   42.025       44
   42.040       44
   42.055       55
   42.070       53
   42.085       58
   42.100       52
   42.115       45
   42.130       42
   42.145       44
   42.160       49
   42.175       51
   42.190       44
   42.205       55
   42.220       49
   42.235       50
   42.250       60
   42.265       55
   42.280       47
   42.295       49
   42.310       43
   42.325       43
   42.340       49
   42.355       64
   42.370       51
   42.385       43
   42.400       54
   42.415       54
   42.430       52
   42.445       49
   42.460       46
   42.475       53
   42.490       47
   42.505       48
   42.520       56
   42.535       48
   42.550       46
   42.565       39
   42.580       38
   42.595       48
   42.610       60
   42.625       47
   42.640       45
   42.655       52
   42.670       50
   42.685       53
   42.700       42
   42.715       34
   42.730       40
   42.745       44
   42.760       44
   42.775       42
   42.790       43
   42.805       45
   42.820       43
   42.835       45
   42.850       44
   42.865       43
   42.880       48
   42.895       41
   42.910       37
   42.925       43
   42.940       63
   42.955       52
   42.970       46
   42.985       64
   43.000       55
   43.015       46
   43.030       37
   43.045       32
   43.060       41
   43.075       39
   43.090       38
   43.105       53
   43.120       39
   43.135       45
   43.150       49
   43.165       43
   43.180       37
   43.195       39
   43.210       47
   43.225       42
   43.240       45
   43.255       47
   43.270       56
   43.285       51
   43.300       49
   43.315       45
   43.330       60
   43.345       57
   43.360       45
   43.375       43
   43.390       46
   43.405       55
   43.420       47
   43.435       50
   43.450       52
   43.465       44
   43.480       46
   43.495       47
   43.510       40
   43.525       47
   43.540       45
   43.555       60
   43.570       44
   43.585       50
   43.600       45
   43.615       39
   43.630       44
   43.645       45
   43.660       41
   43.675       42
   43.690       40
   43.705       49
   43.720       46
   43.735       56
   43.750       51
   43.765       48
   43.780       52
   43.795       48
   43.810       48
   43.825       54
   43.840       49
   43.855       54
   43.870       40
   43.885       40
   43.900       44
   43.915       43
   43.930       44
   43.945       48
   43.960       44
   43.975       42
   43.990       37
   44.005       51
   44.020       50
   44.035       43
   44.050       54
   44.065       48
   44.080       49
   44.095       49
   44.110       48
   44.125       45
   44.140       46
   44.155       43
   44.170       45
   44.185       46
   44.200       58
   44.215       53
   44.230       48
   44.245       53
   44.260       58
   44.275       54
   44.290       60
   44.305       57
   44.320       58
   44.335       42
   44.350       48
   44.365       47
   44.380       42
   44.395       44
   44.410       37
   44.425       43
   44.440       47
   44.455       61
   44.470       41
   44.485       40
   44.500       45
   44.515       45
   44.530       50
   44.545       52
   44.560       48
   44.575       54
   44.590       52
   44.605       49
   44.620       38
   44.635       50
   44.650       36
   44.665       46
   44.680       45
   44.695       41
   44.710       48
   44.725       40
   44.740       41
   44.755       39
   44.770       56
   44.785       49
   44.800       46
   44.815       44
   44.830       54
   44.845       46
   44.860       53
   44.875       47
   44.890       56
   44.905       53
   44.920       46
   44.935       50
   44.950       50
   44.965       42
   44.980       59
   44.995       49
   45.010       44
   45.025       49
   45.040       53
   45.055       44
   45.070       52
   45.085       44
   45.100       44
   45.115       51
   45.130       53
   45.145       49
   45.160       63
   45.175       49
   45.190       46
   45.205       55
   45.220       45
   45.235       47
   45.250       52
   45.265       42
   45.280       52
   45.295       51
   45.310       42
   45.325       50
   45.340       49
   45.355       51
   45.370       49
   45.385       39
   45.400       56
   45.415       56
   45.430       47
   45.445       55
   45.460       45
   45.475       50
   45.490       40
   45.505       38
   45.520       52
   45.535       51
   45.550       44
   45.565       50
   45.580       47
   45.595       51
   45.610       47
   45.625       44
   45.640       46
   45.655       47
   45.670       39
   45.685       52
   45.700       60
   45.715       47
   45.730       46
   45.745       46
   45.760       48
   45.775       57
   45.790       47
   45.805       51
   45.820       40
   45.835       41
   45.850       37
   45.865       32
   45.880       44
   45.895       38
   45.910       34
   45.925       38
   45.940       37
   45.955       34
   45.970       42
   45.985       42
