    4.000      103
    4.015       89
    4.030       88
    4.045       87
    4.060      100
    4.075       93
    4.090      111
    4.105       98
    4.120       87
    4.135       92
    4.150      102
    4.165      105
    4.180      101
    4.195       85
    4.210       94
    4.225      100
    4.240       94
    4.255       97
    4.270       90
    4.285       99
    4.300       96
    4.315       81
    4.330      103
    4.345       89
    4.360       80
    4.375       93
    4.390       79
    4.405       89
    4.420       80
    4.435       89
    4.450       89
    4.465       93
    4.480       96
    4.495       89
    4.510       94
    4.525       96
    4.540      102
    4.555       86
    4.570       98
    4.585       96
    4.600       94
    4.615       86
    4.630       88
    4.645       87
    4.660       88
    4.675      111
    4.690       97
    4.705      103
    4.720      106
    4.735       88
    4.750      107
    4.765      100
    4.780      111
    4.795       92
    4.810       95
    4.825       88
    4.840       83
    4.855       91
    4.870      106
    4.885      106
    4.900      101
    4.915       92
    4.930       92
    4.945       89
    4.960      101
    4.975      100
    4.990       96
    5.005       82
    5.020       86
    5.035       99
    5.050      101
    5.065       97
    5.080      100
    5.095       97
    5.110       96
    5.125       97
    5.140       91
    5.155       84
    5.170       72
    5.185       92
    5.200       83
    5.215       81
    5.230       95
    5.245      114
    5.260       99
    5.275       75
    5.290       89
    5.305       86
    5.320       81
    5.335       84
    5.350       88
    5.365       90
    5.380       88
    5.395       83
    5.410       81
    5.425       80
    5.440       88
    5.455       87
    5.470       93
    5.485       76
    5.500       98
    5.515      102
    5.530       85
    5.545       77
    5.560       84
    5.575       92
    5.590      104
    5.605      102
    5.620       83
    5.635       91
    5.650       96
    5.665       92
    5.680       90
    5.695       83
    5.710       90
    5.725       86
    5.740       72
    5.755       91
    5.770       90
    5.785      104
    5.800       99
    5.815       89
    5.830       86
    5.845       89
    5.860       94
    5.875       90
    5.890       81
    5.905       84
    5.920      105
    5.935      112
    5.950       91
    5.965       97
    5.980       80
    5.995       93
    6.010       92
    6.025      104
    6.040       84
    6.055       88
    6.070       94
    6.085       85
    6.100       90
    6.115       81
    6.130       79
    6.145       97
    6.160       98
    6.175       93
    6.190       97
    6.205       95
    6.220       99
    6.235      103
    6.250       99
    6.265      100
    6.280      102
    6.295      105
    6.310      113
    6.325      101
    6.340       97
    6.355      129
    6.370      123
    6.385      133
    6.400      117
    6.415      120
    6.430      120
    6.445      154
    6.460      157
    6.475      163
    6.490      188
    6.505      213
    6.520      206
    6.535      222
    6.550      229
    6.565      237
    6.580      237
    6.595      177
    6.610      112
    6.625      103
    6.640       95
    6.655       86
    6.670       84
    6.685       84
    6.700       90
    6.715       77
    6.730       90
    6.745       84
    6.760       79
    6.775       99
    6.790       98
    6.805       93
    6.820       86
    6.835       85
    6.850       84
    6.865       82
    6.880       90
    6.895       97
    6.910       96
    6.925       95
    6.940       90
    6.955       85
    6.970       93
    6.985       94
    7.000      107
    7.015       82
    7.030       93
    7.045       99
    7.060      124
    7.075      140
    7.090      130
    7.105      135
    7.120      131
    7.135      103
    7.150       87
    7.165       97
    7.180       93
    7.195       92
    7.210       76
    7.225       82
    7.240       81
    7.255       80
    7.270       79
    7.285       93
    7.300       93
    7.315       71
    7.330       72
    7.345       76
    7.360       87
    7.375       86
    7.390       90
    7.405       88
    7.420       93
    7.435       91
    7.450       99
    7.465      101
    7.480      102
    7.495      100
    7.510      102
    7.525       98
    7.540      116
    7.555      118
    7.570      103
    7.585       98
    7.600       85
    7.615       90
    7.630       83
    7.645       96
    7.660       95
    7.675       93
    7.690       80
    7.705       84
    7.720      100
    7.735       93
    7.750       81
    7.765       81
    7.780       83
    7.795       77
    7.810       96
    7.825       88
    7.840       92
    7.855       93
    7.870       91
    7.885       79
    7.900       79
    7.915       86
    7.930       85
    7.945       95
    7.960       86
    7.975       84
    7.990       86
    8.005       94
    8.020       80
    8.035       87
    8.050       86
    8.065       85
    8.080       78
    8.095       72
    8.110       89
    8.125       90
    8.140       85
    8.155       84
    8.170       87
    8.185       84
    8.200       92
    8.215       83
    8.230       79
    8.245       88
    8.260       87
    8.275       87
    8.290       93
    8.305       93
    8.320       82
    8.335       83
    8.350       97
    8.365       83
    8.380       87
    8.395       96
    8.410      104
    8.425      116
    8.440      108
    8.455       93
    8.470       83
    8.485       93
    8.500       84
    8.515       89
    8.530      103
    8.545       96
    8.560       81
    8.575       92
    8.590       94
    8.605       76
    8.620       83
    8.635       93
    8.650       82
    8.665       77
    8.680       95
    8.695       98
    8.710       86
    8.725       92
    8.740       78
    8.755       93
    8.770       96
    8.785       92
    8.800       97
    8.815       86
    8.830       86
    8.845       82
    8.860      100
    8.875       85
    8.890       78
    8.905       78
    8.920       94
    8.935       90
    8.950       89
    8.965       92
    8.980       83
    8.995       76
    9.010       86
    9.025       74
    9.040       93
    9.055      105
    9.070       81
    9.085       93
    9.100      108
    9.115      100
    9.130       90
    9.145       99
    9.160       96
    9.175      100
    9.190       84
    9.205      101
    9.220      101
    9.235       95
    9.250       96
    9.265       98
    9.280       98
    9.295       80
    9.310       85
    9.325      101
    9.340       97
    9.355       99
    9.370       86
    9.385       82
    9.400       88
    9.415       82
    9.430       83
    9.445       89
    9.460       82
    9.475       94
    9.490       99
    9.505       92
    9.520       93
    9.535       97
    9.550      100
    9.565       94
    9.580      112
    9.595      122
    9.610      113
    9.625      103
    9.640       99
    9.655       95
    9.670      113
    9.685      108
    9.700      109
    9.715      103
    9.730       98
    9.745       81
    9.760       95
    9.775       84
    9.790       84
    9.805       85
    9.820       90
    9.835       98
    9.850      101
    9.865      103
    9.880       88
    9.895       99
    9.910       99
    9.925      112
    9.940       92
    9.955      102
    9.970      100
    9.985      104
   10.000       88
   10.015       93
   10.030      104
   10.045       99
   10.060      116
   10.075      107
   10.090       76
   10.105       90
   10.120      106
   10.135      106
   10.150      109
   10.165      106
   10.180      111
   10.195      107
   10.210       93
   10.225      111
   10.240      119
   10.255      116
   10.270      141
   10.285      133
   10.300      133
   10.315      183
   10.330      201
   10.345      181
   10.360      147
   10.375      117
   10.390      104
   10.405       95
   10.420       94
   10.435       85
   10.450       81
   10.465       92
   10.480       85
   10.495       92
   10.510      100
   10.525       91
   10.540       92
   10.555      107
   10.570       99
   10.585      100
   10.600      110
   10.615      104
   10.630      113
   10.645      111
   10.660      106
   10.675      112
   10.690      117
   10.705      125
   10.720      143
   10.735      129
   10.750      107
   10.765      103
   10.780       99
   10.795       93
   10.810       84
   10.825       85
   10.840       97
   10.855       97
   10.870      103
   10.885      106
   10.900      107
   10.915      103
   10.930      100
   10.945      105
   10.960      115
   10.975      113
   10.990      111
   11.005      133
   11.020      133
   11.035      156
   11.050      155
   11.065      158
   11.080      177
   11.095      195
   11.110      163
   11.125      121
   11.140      108
   11.155      116
   11.170      110
   11.185      108
   11.200      110
   11.215       98
   11.230      106
   11.245      118
   11.260      121
   11.275      124
   11.290      133
   11.305      102
   11.320      103
   11.335       92
   11.350       89
   11.365       81
   11.380       86
   11.395       89
   11.410       80
   11.425       84
   11.440       81
   11.455       98
   11.470       96
   11.485       93
   11.500       90
   11.515       93
   11.530       90
   11.545       91
   11.560       90
   11.575       85
   11.590      105
   11.605      108
   11.620       96
   11.635       98
   11.650      105
   11.665      103
   11.680      104
   11.695      120
   11.710      128
   11.725      124
   11.740      124
   11.755      124
   11.770      123
   11.785       97
   11.800      101
   11.815       97
   11.830      108
   11.845      129
   11.860       91
   11.875       96
   11.890      124
   11.905      128
   11.920      127
   11.935      119
   11.950      104
   11.965       93
   11.980      102
   11.995       92
   12.010       90
   12.025       95
   12.040       96
   12.055       98
   12.070       90
   12.085       96
   12.100       99
   12.115       87
   12.130       75
   12.145       84
   12.160       95
   12.175       90
   12.190       90
   12.205      102
   12.220      104
   12.235       99
   12.250      109
   12.265      106
   12.280      108
   12.295      130
   12.310      139
   12.325      144
   12.340      174
   12.355      206
   12.370      214
   12.385      244
   12.400      266
   12.415      346
   12.430      390
   12.445      458
   12.460      582
   12.475      697
   12.490      882
   12.505      992
   12.520      899
   12.535      752
   12.550      646
   12.565      620
   12.580      649
   12.595      681
   12.610      580
   12.625      449
   12.640      297
   12.655      197
   12.670      163
   12.685      147
   12.700      137
   12.715      124
   12.730      131
   12.745      135
   12.760      129
   12.775      140
   12.790      147
   12.805      181
   12.820      169
   12.835      196
   12.850      246
   12.865      277
   12.880      324
   12.895      327
   12.910      288
   12.925      262
   12.940      240
   12.955      289
   12.970      346
   12.985      370
   13.000      439
   13.015      568
   13.030      656
   13.045      865
   13.060     1087
   13.075     1141
   13.090      996
   13.105      866
   13.120      896
   13.135      902
   13.150     1099
   13.165     1356
   13.180     1750
   13.195     1762
   13.210     1238
   13.225      737
   13.240      414
   13.255      272
   13.270      224
   13.285      196
   13.300      231
   13.315      211
   13.330      200
   13.345      227
   13.360      296
   13.375      339
   13.390      332
   13.405      395
   13.420      433
   13.435      421
   13.450      438
   13.465      407
   13.480      311
   13.495      205
   13.510      144
   13.525      133
   13.540      133
   13.555      134
   13.570      137
   13.585      135
   13.600      144
   13.615      159
   13.630      175
   13.645      168
   13.660      203
   13.675      249
   13.690      237
   13.705      211
   13.720      178
   13.735      132
   13.750      114
   13.765      119
   13.780       94
   13.795       82
   13.810       93
   13.825       92
   13.840       91
   13.855      101
   13.870       87
   13.885       95
   13.900       94
   13.915       95
   13.930      103
   13.945       89
   13.960      102
   13.975      104
   13.990      115
   14.005      114
   14.020      118
   14.035      127
   14.050      146
   14.065      131
   14.080      157
   14.095      175
   14.110      205
   14.125      246
   14.140      257
   14.155      268
   14.170      239
   14.185      227
   14.200      229
   14.215      237
   14.230      265
   14.245      262
   14.260      244
   14.275      261
   14.290      293
   14.305      320
   14.320      342
   14.335      455
   14.350      477
   14.365      395
   14.380      285
   14.395      189
   14.410      128
   14.425      114
   14.440      102
   14.455      115
   14.470      106
   14.485       99
   14.500      106
   14.515       90
   14.530       92
   14.545       88
   14.560       99
   14.575       95
   14.590      103
   14.605      105
   14.620       91
   14.635       99
   14.650      109
   14.665      104
   14.680      123
   14.695      100
   14.710      123
   14.725      124
   14.740      143
   14.755      184
   14.770      169
   14.785      201
   14.800      240
   14.815      304
   14.830      365
   14.845      423
   14.860      462
   14.875      542
   14.890      570
   14.905      702
   14.920      788
   14.935      900
   14.950      782
   14.965      503
   14.980      285
   14.995      220
   15.010      194
   15.025      176
   15.040      172
   15.055      170
   15.070      171
   15.085      192
   15.100      220
   15.115      231
   15.130      279
   15.145      312
   15.160      307
   15.175      282
   15.190      240
   15.205      231
   15.220      223
   15.235      215
   15.250      192
   15.265      163
   15.280      147
   15.295      152
   15.310      162
   15.325      164
   15.340      165
   15.355      198
   15.370      203
   15.385      249
   15.400      304
   15.415      325
   15.430      346
   15.445      296
   15.460      245
   15.475      187
   15.490      181
   15.505      177
   15.520      191
   15.535      198
   15.550      217
   15.565      243
   15.580      258
   15.595      299
   15.610      329
   15.625      303
   15.640      285
   15.655      222
   15.670      171
   15.685      137
   15.700      134
   15.715      130
   15.730      131
   15.745      116
   15.760      126
   15.775      130
   15.790      139
   15.805      155
   15.820      133
   15.835      171
   15.850      180
   15.865      193
   15.880      217
   15.895      253
   15.910      340
   15.925      407
   15.940      435
   15.955      442
   15.970      403
   15.985      328
   16.000      257
   16.015      233
   16.030      191
   16.045      160
   16.060      165
   16.075      171
   16.090      190
   16.105      247
   16.120      293
   16.135      324
   16.150      286
   16.165      271
   16.180      309
   16.195      317
   16.210      378
   16.225      440
   16.240      557
   16.255      647
   16.270      568
   16.285      469
   16.300      355
   16.315      347
   16.330      354
   16.345      399
   16.360      486
   16.375      495
   16.390      455
   16.405      418
   16.420      385
   16.435      346
   16.450      356
   16.465      370
   16.480      391
   16.495      478
   16.510      573
   16.525      601
   16.540      543
   16.555      496
   16.570      436
   16.585      437
   16.600      481
   16.615      480
   16.630      423
   16.645      363
   16.660      288
   16.675      213
   16.690      171
   16.705      167
   16.720      167
   16.735      156
   16.750      155
   16.765      171
   16.780      203
   16.795      240
   16.810      240
   16.825      275
   16.840      311
   16.855      299
   16.870      256
   16.885      191
   16.900      154
   16.915      153
   16.930      144
   16.945      158
   16.960      165
   16.975      192
   16.990      194
   17.005      231
   17.020      217
   17.035      228
   17.050      243
   17.065      235
   17.080      209
   17.095      204
   17.110      187
   17.125      182
   17.140      177
   17.155      161
   17.170      153
   17.185      143
   17.200      153
   17.215      171
   17.230      191
   17.245      207
   17.260      228
   17.275      303
   17.290      328
   17.305      288
   17.320      224
   17.335      169
   17.350      133
   17.365      116
   17.380      106
   17.395      114
   17.410      117
   17.425      132
   17.440      144
   17.455      158
   17.470      146
   17.485      176
   17.500      177
   17.515      161
   17.530      169
   17.545      182
   17.560      204
   17.575      196
   17.590      181
   17.605      150
   17.620      112
   17.635      131
   17.650      106
   17.665      115
   17.680      105
   17.695      114
   17.710       85
   17.725       95
   17.740       94
   17.755       80
   17.770       73
   17.785       95
   17.800       85
   17.815       76
   17.830       89
   17.845       91
   17.860       94
   17.875       79
   17.890       87
   17.905       97
   17.920       89
   17.935       93
   17.950      100
   17.965      121
   17.980      130
   17.995      130
   18.010      146
   18.025      157
   18.040      171
   18.055      171
   18.070      196
   18.085      208
   18.100      224
   18.115      212
   18.130      169
   18.145      124
   18.160      111
   18.175      111
   18.190      105
   18.205      105
   18.220      104
   18.235      100
   18.250       96
   18.265      114
   18.280      124
   18.295      141
   18.310      157
   18.325      187
   18.340      203
   18.355      242
   18.370      263
   18.385      255
   18.400      269
   18.415      243
   18.430      283
   18.445      293
   18.460      356
   18.475      360
   18.490      323
   18.505      302
   18.520      270
   18.535      240
   18.550      216
   18.565      166
   18.580      174
   18.595      164
   18.610      191
   18.625      200
   18.640      235
   18.655      258
   18.670      250
   18.685      266
   18.700      259
   18.715      219
   18.730      206
   18.745      190
   18.760      186
   18.775      162
   18.790      161
   18.805      136
   18.820      102
   18.835      101
   18.850       92
   18.865       86
   18.880       91
   18.895      105
   18.910      103
   18.925       78
   18.940       84
   18.955       81
   18.970       90
   18.985       81
   19.000       98
   19.015       82
   19.030       80
   19.045       78
   19.060       86
   19.075       79
   19.090       79
   19.105       90
   19.120       86
   19.135       85
   19.150       91
   19.165       80
   19.180       88
   19.195       93
   19.210       91
   19.225       83
   19.240       89
   19.255      102
   19.270      102
   19.285      115
   19.300      104
   19.315      121
   19.330      139
   19.345      149
   19.360      172
   19.375      194
   19.390      209
   19.405      230
   19.420      200
   19.435      206
   19.450      169
   19.465      135
   19.480      145
   19.495      147
   19.510      132
   19.525      128
   19.540      166
   19.555      189
   19.570      188
   19.585      204
   19.600      245
   19.615      311
   19.630      359
   19.645      439
   19.660      502
   19.675      528
   19.690      536
   19.705      429
   19.720      345
   19.735      322
   19.750      317
   19.765      346
   19.780      373
   19.795      376
   19.810      352
   19.825      301
   19.840      275
   19.855      230
   19.870      180
   19.885      162
   19.900      135
   19.915      119
   19.930      136
   19.945      171
   19.960      156
   19.975      158
   19.990      174
   20.005      163
   20.020      145
   20.035      124
   20.050      107
   20.065      111
   20.080       94
   20.095       82
   20.110       84
   20.125       81
   20.140       86
   20.155       89
   20.170       95
   20.185       89
   20.200       93
   20.215       91
   20.230       95
   20.245       89
   20.260       91
   20.275       91
   20.290      105
   20.305       98
   20.320       82
   20.335       92
   20.350      106
   20.365       92
   20.380       99
   20.395      109
   20.410      103
   20.425      107
   20.440      132
   20.455      137
   20.470      135
   20.485      158
   20.500      181
   20.515      205
   20.530      223
   20.545      225
   20.560      201
   20.575      198
   20.590      200
   20.605      195
   20.620      205
   20.635      213
   20.650      200
   20.665      192
   20.680      171
   20.695      130
   20.710      108
   20.725      112
   20.740      126
   20.755      116
   20.770      111
   20.785      113
   20.800      100
   20.815      114
   20.830      110
   20.845      106
   20.860      103
   20.875      123
   20.890      124
   20.905      111
   20.920      133
   20.935      109
   20.950      107
   20.965      113
   20.980      101
   20.995      144
   21.010      125
   21.025      139
   21.040      117
   21.055      108
   21.070      100
   21.085       87
   21.100       97
   21.115       92
   21.130      100
   21.145       78
   21.160       81
   21.175       86
   21.190       81
   21.205       87
   21.220      113
   21.235      112
   21.250      129
   21.265      134
   21.280      168
   21.295      223
   21.310      242
   21.325      263
   21.340      333
   21.355      344
   21.370      325
   21.385      284
   21.400      233
   21.415      240
   21.430      243
   21.445      289
   21.460      300
   21.475      377
   21.490      444
   21.505      550
   21.520      697
   21.535      796
   21.550      782
   21.565      670
   21.580      513
   21.595      357
   21.610      284
   21.625      250
   21.640      226
   21.655      244
   21.670      215
   21.685      196
   21.700      174
   21.715      155
   21.730      119
   21.745      108
   21.760      113
   21.775       95
   21.790      107
   21.805      108
   21.820      109
   21.835       98
   21.850       86
   21.865       88
   21.880       96
   21.895      102
   21.910      110
   21.925      106
   21.940      109
   21.955      121
   21.970      108
   21.985      101
   22.000      114
   22.015      116
   22.030      121
   22.045      127
   22.060      131
   22.075      134
   22.090      138
   22.105      148
   22.120      174
   22.135      178
   22.150      193
   22.165      168
   22.180      140
   22.195      123
   22.210      118
   22.225      116
   22.240      121
   22.255      125
   22.270      147
   22.285      172
   22.300      201
   22.315      211
   22.330      224
   22.345      252
   22.360      232
   22.375      247
   22.390      212
   22.405      189
   22.420      155
   22.435      161
   22.450      166
   22.465      180
   22.480      218
   22.495      214
   22.510      223
   22.525      250
   22.540      280
   22.555      323
   22.570      324
   22.585      288
   22.600      278
   22.615      284
   22.630      238
   22.645      187
   22.660      164
   22.675      151
   22.690      158
   22.705      159
   22.720      141
   22.735      139
   22.750      156
   22.765      204
   22.780      197
   22.795      211
   22.810      199
   22.825      176
   22.840      163
   22.855      149
   22.870      152
   22.885      157
   22.900      174
   22.915      172
   22.930      178
   22.945      171
   22.960      142
   22.975      126
   22.990      123
   23.005      119
   23.020       99
   23.035      107
   23.050      102
   23.065      100
   23.080      120
   23.095      134
   23.110      150
   23.125      145
   23.140      132
   23.155      119
   23.170       94
   23.185       78
   23.200       75
   23.215       92
   23.230       83
   23.245       76
   23.260       89
   23.275       81
   23.290       83
   23.305       87
   23.320       79
   23.335       81
   23.350       93
   23.365       87
   23.380       86
   23.395       89
   23.410       78
   23.425       75
   23.440       83
   23.455       74
   23.470       78
   23.485       79
   23.500       77
   23.515       91
   23.530       92
   23.545      100
   23.560      118
   23.575       94
   23.590       78
   23.605       93
   23.620      103
   23.635       92
   23.650       96
   23.665      121
   23.680      127
   23.695      135
   23.710      161
   23.725      146
   23.740      117
   23.755       99
   23.770       99
   23.785       79
   23.800      100
   23.815      110
   23.830      104
   23.845      100
   23.860      126
   23.875      113
   23.890      125
   23.905      143
   23.920      163
   23.935      186
   23.950      183
   23.965      193
   23.980      183
   23.995      144
   24.010      132
   24.025      123
   24.040      116
   24.055      120
   24.070      124
   24.085      114
   24.100      137
   24.115      124
   24.130      124
   24.145      142
   24.160      153
   24.175      135
   24.190      144
   24.205      129
   24.220      112
   24.235      109
   24.250      104
   24.265      112
   24.280      100
   24.295       91
   24.310      103
   24.325      112
   24.340      117
   24.355       99
   24.370      110
   24.385      106
   24.400      106
   24.415      108
   24.430      111
   24.445      101
   24.460       97
   24.475       92
   24.490       92
   24.505       93
   24.520       77
   24.535       95
   24.550       85
   24.565       93
   24.580      101
   24.595      112
   24.610      103
   24.625      115
   24.640      139
   24.655      163
   24.670      167
   24.685      165
   24.700      164
   24.715      134
   24.730      148
   24.745      126
   24.760      158
   24.775      129
   24.790      120
   24.805      132
   24.820      133
   24.835      132
   24.850      132
   24.865      156
   24.880      183
   24.895      170
   24.910      150
   24.925      131
   24.940      123
   24.955      104
   24.970       98
   24.985      101
   25.000       87
   25.015      100
   25.030       94
   25.045      113
   25.060      122
   25.075      140
   25.090      143
   25.105      164
   25.120      157
   25.135      146
   25.150      130
   25.165      124
   25.180      148
   25.195      128
   25.210      124
   25.225      137
   25.240      130
   25.255      133
   25.270      152
   25.285      174
   25.300      208
   25.315      243
   25.330      226
   25.345      263
   25.360      244
   25.375      256
   25.390      216
   25.405      202
   25.420      173
   25.435      123
   25.450      128
   25.465      123
   25.480      123
   25.495      129
   25.510      137
   25.525      145
   25.540      145
   25.555      158
   25.570      166
   25.585      177
   25.600      145
   25.615      123
   25.630      108
   25.645       90
   25.660      104
   25.675      107
   25.690       99
   25.705      104
   25.720      114
   25.735      109
   25.750      119
   25.765      124
   25.780      118
   25.795      138
   25.810      135
   25.825      142
   25.840      136
   25.855      123
   25.870      120
   25.885      123
   25.900      119
   25.915      114
   25.930      106
   25.945      103
   25.960      105
   25.975      102
   25.990       86
   26.005      102
   26.020      109
   26.035      100
   26.050      105
   26.065      101
   26.080       85
   26.095       91
   26.110       94
   26.125       88
   26.140       80
   26.155       87
   26.170       86
   26.185       86
   26.200       82
   26.215       81
   26.230       82
   26.245       82
   26.260      103
   26.275      124
   26.290      109
   26.305      131
   26.320      145
   26.335      150
   26.350      138
   26.365      107
   26.380      101
   26.395       98
   26.410       95
   26.425       86
   26.440       97
   26.455       98
   26.470       89
   26.485      104
   26.500      130
   26.515      138
   26.530      155
   26.545      186
   26.560      206
   26.575      223
   26.590      218
   26.605      218
   26.620      221
   26.635      225
   26.650      206
   26.665      187
   26.680      162
   26.695      147
   26.710      120
   26.725      111
   26.740      125
   26.755      118
   26.770      107
   26.785      124
   26.800       84
   26.815      121
   26.830      115
   26.845      113
   26.860       92
   26.875      107
   26.890      107
   26.905      112
   26.920       98
   26.935      102
   26.950       98
   26.965      101
   26.980       89
   26.995       92
   27.010      106
   27.025      107
   27.040       95
   27.055      106
   27.070      108
   27.085      120
   27.100      123
   27.115      122
   27.130      139
   27.145      164
   27.160      184
   27.175      178
   27.190      205
   27.205      207
   27.220      204
   27.235      207
   27.250      209
   27.265      219
   27.280      207
   27.295      220
   27.310      216
   27.325      196
   27.340      186
   27.355      191
   27.370      168
   27.385      155
   27.400      137
   27.415      125
   27.430      109
   27.445      105
   27.460      116
   27.475      128
   27.490      136
   27.505      113
   27.520      135
   27.535      154
   27.550      149
   27.565      133
   27.580      131
   27.595      120
   27.610      109
   27.625      115
   27.640      104
   27.655      111
   27.670      103
   27.685      102
   27.700      113
   27.715      114
   27.730      114
   27.745      106
   27.760      131
   27.775      138
   27.790      139
   27.805      123
   27.820      123
   27.835      121
   27.850      111
   27.865      122
   27.880      125
   27.895      124
   27.910      144
   27.925      128
   27.940      129
   27.955      129
   27.970      130
   27.985      123
   28.000      132
   28.015      132
   28.030      105
   28.045      112
   28.060      121
   28.075       96
   28.090      100
   28.105       91
   28.120       94
   28.135       96
   28.150      104
   28.165       95
   28.180       86
   28.195       76
   28.210       97
   28.225       98
   28.240       98
   28.255       92
   28.270      102
   28.285      104
   28.300      111
   28.315      114
   28.330       94
   28.345      103
   28.360      115
   28.375      116
   28.390      114
   28.405      104
   28.420      116
   28.435      120
   28.450      115
   28.465      110
   28.480      131
   28.495      140
   28.510      138
   28.525      141
   28.540      143
   28.555      144
   28.570      148
   28.585      138
   28.600      136
   28.615      129
   28.630      112
   28.645      132
   28.660      115
   28.675      134
   28.690      121
   28.705      109
   28.720      123
   28.735      115
   28.750      113
   28.765      127
   28.780      115
   28.795      116
   28.810      107
   28.825      118
   28.840      112
   28.855      119
   28.870      112
   28.885      112
   28.900      110
   28.915      113
   28.930      117
   28.945      110
   28.960      103
   28.975       82
   28.990       94
   29.005      107
   29.020      104
   29.035      103
   29.050       93
   29.065      100
   29.080      106
   29.095      108
   29.110      103
   29.125      110
   29.140      105
   29.155      101
   29.170       99
   29.185      112
   29.200      128
   29.215      126
   29.230      133
   29.245      145
   29.260      138
   29.275      172
   29.290      198
   29.305      196
   29.320      186
   29.335      186
   29.350      158
   29.365      132
   29.380      111
   29.395      128
   29.410      140
   29.425      132
   29.440      105
   29.455      117
   29.470      126
   29.485      130
   29.500      121
   29.515      127
   29.530      115
   29.545      101
   29.560       99
   29.575      100
   29.590      101
   29.605       93
   29.620      108
   29.635       91
   29.650       86
   29.665      107
   29.680       92
   29.695       99
   29.710       98
   29.725       99
   29.740      116
   29.755       91
   29.770       90
   29.785       83
   29.800      104
   29.815       95
   29.830       96
   29.845       84
   29.860       95
   29.875       98
   29.890       91
   29.905       94
   29.920       94
   29.935       93
   29.950       84
   29.965       91
   29.980       94
   29.995      110
   30.010       90
   30.025      122
   30.040      110
   30.055       93
   30.070      102
   30.085       95
   30.100      101
   30.115      102
   30.130      117
   30.145      123
   30.160      119
   30.175      104
   30.190      116
   30.205      131
   30.220      138
   30.235      111
   30.250      115
   30.265      121
   30.280      133
   30.295      115
   30.310      119
   30.325      103
   30.340       95
   30.355      102
   30.370      100
   30.385       88
   30.400      100
   30.415       94
   30.430       88
   30.445       90
   30.460       98
   30.475       93
   30.490      115
   30.505      108
   30.520      115
   30.535      136
   30.550      145
   30.565      139
   30.580      134
   30.595      148
   30.610      143
   30.625      125
   30.640      134
   30.655      125
   30.670      105
   30.685      126
   30.700      122
   30.715      118
   30.730      106
   30.745      113
   30.760      106
   30.775      106
   30.790       88
   30.805       96
   30.820      101
   30.835      104
   30.850       93
   30.865       89
   30.880      108
   30.895      119
   30.910      105
   30.925      115
   30.940      102
   30.955      113
   30.970      129
   30.985      114
   31.000      119
   31.015      112
   31.030      108
   31.045      108
   31.060      103
   31.075      116
   31.090      116
   31.105      100
   31.120      112
   31.135      116
   31.150      116
   31.165      129
   31.180      116
   31.195      129
   31.210      130
   31.225      122
   31.240      115
   31.255      115
   31.270      117
   31.285      118
   31.300      119
   31.315      124
   31.330      113
   31.345      100
   31.360      121
   31.375      129
   31.390      118
   31.405      123
   31.420      134
   31.435      147
   31.450      145
   31.465      165
   31.480      147
   31.495      148
   31.510      140
   31.525      129
   31.540      118
   31.555      116
   31.570      130
   31.585      125
   31.600      136
   31.615      115
   31.630      108
   31.645      106
   31.660      114
   31.675      109
   31.690       98
   31.705      113
   31.720      120
   31.735      110
   31.750      105
   31.765       98
   31.780       95
   31.795       92
   31.810      101
   31.825       85
   31.840       97
   31.855       93
   31.870       91
   31.885       91
   31.900       82
   31.915       91
   31.930       92
   31.945       98
   31.960      101
   31.975       89
   31.990       90
   32.005       98
   32.020       97
   32.035       94
   32.050       94
   32.065       92
   32.080       87
   32.095       85
   32.110       85
   32.125       80
   32.140       83
   32.155       88
   32.170       97
   32.185       92
   32.200       91
   32.215       87
   32.230       81
   32.245       91
   32.260       85
   32.275       77
   32.290       85
   32.305      106
   32.320      106
   32.335       85
   32.350       89
   32.365       92
   32.380       94
   32.395       87
   32.410      101
   32.425      102
   32.440       92
   32.455      109
   32.470      111
   32.485      117
   32.500      126
   32.515      144
   32.530      159
   32.545      146
   32.560      157
   32.575      171
   32.590      161
   32.605      140
   32.620      134
   32.635      131
   32.650      124
   32.665      115
   32.680      117
   32.695      119
   32.710      102
   32.725      108
   32.740      122
   32.755      106
   32.770      109
   32.785      116
   32.800      117
   32.815       94
   32.830       99
   32.845       95
   32.860       97
   32.875       94
   32.890      114
   32.905       93
   32.920       97
   32.935      102
   32.950      107
   32.965      123
   32.980      123
   32.995      130
   33.010      123
   33.025      140
   33.040      141
   33.055      154
   33.070      153
   33.085      141
   33.100      155
   33.115      159
   33.130      127
   33.145      133
   33.160      130
   33.175      115
   33.190      120
   33.205      137
   33.220      121
   33.235      109
   33.250      124
   33.265      116
   33.280      106
   33.295      115
   33.310      121
   33.325      108
   33.340      114
   33.355      133
   33.370      147
   33.385      140
   33.400      143
   33.415      142
   33.430      145
   33.445      142
   33.460      122
   33.475       98
   33.490      123
   33.505      118
   33.520      113
   33.535      119
   33.550      119
   33.565      139
   33.580      118
   33.595      116
   33.610      105
   33.625      114
   33.640      125
   33.655      105
   33.670      110
   33.685       96
   33.700       87
   33.715      100
   33.730       87
   33.745      101
   33.760       93
   33.775       97
   33.790       94
   33.805       88
   33.820       77
   33.835       87
   33.850       79
   33.865       98
   33.880       87
   33.895       88
   33.910       91
   33.925       80
   33.940       78
   33.955       87
   33.970       92
   33.985       89
   34.000      109
   34.015      114
   34.030      101
   34.045      107
   34.060       99
   34.075      111
   34.090      111
   34.105      108
   34.120      105
   34.135      106
   34.150       98
   34.165       90
   34.180       95
   34.195      100
   34.210       97
   34.225       90
   34.240       83
   34.255      101
   34.270      105
   34.285       96
   34.300      113
   34.315      113
   34.330      114
   34.345      114
   34.360      100
   34.375      104
   34.390       96
   34.405       96
   34.420      106
   34.435      102
   34.450       99
   34.465       99
   34.480      102
   34.495      101
   34.510       98
   34.525      101
   34.540      118
   34.555      106
   34.570      103
   34.585      113
   34.600      110
   34.615      102
   34.630      113
   34.645      100
   34.660      108
   34.675      106
   34.690      111
   34.705      100
   34.720      100
   34.735      107
   34.750      111
   34.765      127
   34.780      135
   34.795      132
   34.810      126
   34.825      132
   34.840      151
   34.855      136
   34.870      143
   34.885      145
   34.900      146
   34.915      138
   34.930      135
   34.945      149
   34.960      163
   34.975      162
   34.990      162
   35.005      166
   35.020      165
   35.035      149
   35.050      159
   35.065      164
   35.080      173
   35.095      162
   35.110      188
   35.125      174
   35.140      161
   35.155      167
   35.170      156
   35.185      157
   35.200      152
   35.215      133
   35.230      120
   35.245      119
   35.260      133
   35.275      126
   35.290      120
   35.305      100
   35.320      103
   35.335       94
   35.350       91
   35.365       89
   35.380       94
   35.395       95
   35.410       91
   35.425       81
   35.440       89
   35.455       88
   35.470       92
   35.485       82
   35.500       85
   35.515       78
   35.530       87
   35.545       84
   35.560       99
   35.575       89
   35.590       77
   35.605       86
   35.620       76
   35.635       65
   35.650       62
   35.665       86
   35.680       83
   35.695      100
   35.710       92
   35.725       70
   35.740       82
   35.755       96
   35.770      100
   35.785       83
   35.800      115
   35.815      122
   35.830      113
   35.845      128
   35.860      102
   35.875       99
   35.890      103
   35.905      112
   35.920       96
   35.935       90
   35.950      111
   35.965      104
   35.980       91
   35.995       90
   36.010       87
   36.025      101
   36.040       83
   36.055       87
   36.070      102
   36.085       79
   36.100       89
   36.115       90
   36.130      105
   36.145       89
   36.160       91
   36.175       84
   36.190       84
   36.205      100
   36.220       80
   36.235       83
   36.250       93
   36.265       80
   36.280       94
   36.295       87
   36.310       98
   36.325      100
   36.340       99
   36.355       94
   36.370      103
   36.385       90
   36.400       79
   36.415       82
   36.430       86
   36.445       82
   36.460       95
   36.475       95
   36.490       91
   36.505       83
   36.520       90
   36.535       96
   36.550       91
   36.565       92
   36.580       79
   36.595       81
   36.610       88
   36.625      107
   36.640      124
   36.655       99
   36.670      105
   36.685       92
   36.700       87
   36.715      102
   36.730       99
   36.745      103
   36.760       97
   36.775      102
   36.790       96
   36.805       91
   36.820      103
   36.835      122
   36.850      102
   36.865      116
   36.880       92
   36.895       85
   36.910       77
   36.925       87
   36.940       68
   36.955       79
   36.970       77
   36.985       79
   37.000       71
   37.015       78
   37.030       77
   37.045       90
   37.060       90
   37.075       86
   37.090       92
   37.105       90
   37.120       95
   37.135       81
   37.150       79
   37.165       75
   37.180       87
   37.195       89
   37.210       73
   37.225       76
   37.240       60
   37.255       75
   37.270       77
   37.285       87
   37.300       90
   37.315       99
   37.330      100
   37.345       97
   37.360       83
   37.375       89
   37.390       92
   37.405      104
   37.420       92
   37.435       94
   37.450       93
   37.465       92
   37.480       98
   37.495       84
   37.510      101
   37.525      104
   37.540       97
   37.555       95
   37.570      105
   37.585      105
   37.600      102
   37.615       76
   37.630       90
   37.645       82
   37.660       76
   37.675       80
   37.690       87
   37.705       88
   37.720       92
   37.735       99
   37.750       80
   37.765       77
   37.780       91
   37.795       84
   37.810       86
   37.825       76
   37.840       81
   37.855       94
   37.870      117
   37.885      102
   37.900      107
   37.915      107
   37.930       94
   37.945       87
   37.960       94
   37.975       82
   37.990       76
   38.005       84
   38.020       85
   38.035       89
   38.050       79
   38.065       90
   38.080       97
   38.095       93
   38.110      102
   38.125      111
   38.140       92
   38.155       88
   38.170       87
   38.185       81
   38.200       93
   38.215       94
   38.230       79
   38.245       83
   38.260       81
   38.275       80
   38.290       77
   38.305       65
   38.320       68
   38.335       86
   38.350       92
   38.365       98
   38.380       99
   38.395      100
   38.410      108
   38.425       96
   38.440       94
   38.455      103
   38.470       84
   38.485       80
   38.500       91
   38.515      107
   38.530       92
   38.545       80
   38.560       75
   38.575       74
   38.590       74
   38.605       80
   38.620       76
   38.635       78
   38.650       90
   38.665       85
   38.680       65
   38.695       73
   38.710       64
   38.725       66
   38.740       85
   38.755       76
   38.770       76
   38.785       97
   38.800       85
   38.815       75
   38.830       77
   38.845       70
   38.860       76
   38.875       68
   38.890       75
   38.905       69
   38.920       82
   38.935       60
   38.950       65
   38.965       73
   38.980       67
   38.995       72
   39.010       70
   39.025       74
   39.040       68
   39.055       52
   39.070       79
   39.085       72
   39.100       86
   39.115       69
   39.130       76
   39.145       78
   39.160       80
   39.175       92
   39.190       84
   39.205       86
   39.220       99
   39.235       89
   39.250       92
   39.265       87
   39.280       99
   39.295       93
   39.310       82
   39.325       78
   39.340       86
   39.355       81
   39.370       81
   39.385       74
   39.400       75
   39.415       86
   39.430       84
   39.445       82
   39.460       80
   39.475       80
   39.490       77
   39.505       79
   39.520       64
   39.535       59
   39.550       70
   39.565       71
   39.580       75
   39.595       74
   39.610       89
   39.625       74
   39.640       74
   39.655       66
   39.670       72
   39.685       73
   39.700       64
   39.715       68
   39.730       74
   39.745       78
   39.760       79
   39.775       65
   39.790       74
   39.805       68
   39.820       58
   39.835       71
   39.850       81
   39.865       90
   39.880       88
   39.895       80
   39.910       85
   39.925       89
   39.940       84
   39.955       95
   39.970      106
   39.985       90
   40.000       98
   40.015      101
   40.030      104
   40.045      105
   40.060       91
   40.075       96
   40.090       92
   40.105       86
   40.120       95
   40.135       91
   40.150       78
   40.165       92
   40.180       85
   40.195       91
   40.210      105
   40.225       96
   40.240       78
   40.255       96
   40.270       84
   40.285       93
   40.300       91
   40.315       81
   40.330       86
   40.345       84
   40.360       73
   40.375       81
   40.390       91
   40.405       81
   40.420       87
   40.435       81
   40.450       69
   40.465       68
   40.480       76
   40.495       88
   40.510       74
   40.525       65
   40.540       75
   40.555       74
   40.570       75
   40.585       69
   40.600       63
   40.615       78
   40.630       70
   40.645       75
   40.660       82
   40.675       69
   40.690       63
   40.705       84
   40.720       85
   40.735       72
   40.750       67
   40.765       73
   40.780       73
   40.795       52
   40.810       66
   40.825       64
   40.840       62
   40.855       63
   40.870       61
   40.885       67
   40.900       75
   40.915       75
   40.930       70
   40.945       66
   40.960       72
   40.975       81
   40.990       77
   41.005       71
   41.020       77
   41.035       68
   41.050       68
   41.065       67
   41.080       64
   41.095       71
   41.110       68
   41.125       74
   41.140       70
   41.155       74
   41.170       76
   41.185       75
   41.200       72
   41.215       79
   41.230       90
   41.245       86
   41.260       75
   41.275       72
   41.290       73
   41.305       89
   41.320       70
   41.335       74
   41.350       92
   41.365       77
   41.380       82
   41.395       76
   41.410       69
   41.425       75
   41.440       73
   41.455       76
   41.470       65
   41.485       72
   41.500       80
   41.515       83
   41.530       78
   41.545       70
   41.560       84
   41.575       75
   41.590       81
   41.605       82
   41.620       80
   41.635       77
   41.650       79
   41.665       88
   41.680       89
   41.695       74
   41.710       71
   41.725       57
   41.740       71
   41.755       61
   41.770       69
   41.785       83
   41.800       81
   41.815       79
   41.830       84
   41.845       68
   41.860       73
   41.875       72
   41.890       84
   41.905       74
   41.920       81
   41.935       84
   41.950       83
   41.965       76
   41.980       81
   41.995       62
   42.010       66
   42.025       63
   42.040       60
   42.055       60
   42.070       75
   42.085       63
   42.100       73
   42.115       73
   42.130       68
   42.145       75
   42.160       76
   42.175       74
   42.190       65
   42.205       66
   42.220       63
   42.235       70
   42.250       87
   42.265       72
   42.280       75
   42.295       84
   42.310       76
   42.325       68
   42.340       61
   42.355       71
   42.370       77
   42.385       75
   42.400       83
   42.415       66
   42.430       70
   42.445       74
   42.460       78
   42.475       58
   42.490       75
   42.505       72
   42.520       71
   42.535       84
   42.550       92
   42.565       79
   42.580       78
   42.595       71
   42.610       65
   42.625       80
   42.640       81
   42.655       79
   42.670       67
   42.685       68
   42.700       66
   42.715       65
   42.730       71
   42.745       60
   42.760       65
   42.775       75
   42.790       70
   42.805       67
   42.820       71
   42.835       77
   42.850       83
   42.865       80
   42.880       85
   42.895       68
   42.910       62
   42.925       64
   42.940       73
   42.955       88
   42.970       66
   42.985       59
   43.000       83
   43.015       67
   43.030       75
   43.045       68
   43.060       66
   43.075       74
   43.090       85
   43.105       61
   43.120       66
   43.135       59
   43.150       67
   43.165       70
   43.180       60
   43.195       70
   43.210       81
   43.225       70
   43.240       80
   43.255       74
   43.270       63
   43.285       70
   43.300       69
   43.315       71
   43.330       61
   43.345       70
   43.360       67
   43.375       69
   43.390       62
   43.405       64
   43.420       81
   43.435       81
   43.450       78
   43.465       62
   43.480       74
   43.495       80
   43.510       67
   43.525       79
   43.540       73
   43.555       75
   43.570       83
   43.585       76
   43.600       78
   43.615       81
   43.630       81
   43.645       75
   43.660       74
   43.675       74
   43.690       71
   43.705       84
   43.720       80
   43.735       78
   43.750       78
   43.765       79
   43.780       71
   43.795       73
   43.810       86
   43.825       82
   43.840       71
   43.855       82
   43.870       80
   43.885       81
   43.900       74
   43.915       82
   43.930       82
   43.945       83
   43.960       71
   43.975       81
   43.990       85
   44.005       83
   44.020       88
   44.035       79
   44.050       84
   44.065       72
   44.080       79
   44.095       82
   44.110       80
   44.125       70
   44.140       76
   44.155       85
   44.170       88
   44.185       76
   44.200       80
   44.215       78
   44.230       70
   44.245       79
   44.260       66
   44.275       74
   44.290       78
   44.305       74
   44.320       77
   44.335       85
   44.350       80
   44.365       90
   44.380       81
   44.395       89
   44.410       95
   44.425       87
   44.440      101
   44.455       79
   44.470       76
   44.485       86
   44.500       95
   44.515       93
   44.530       83
   44.545       84
   44.560       90
   44.575       79
   44.590       91
   44.605       97
   44.620       80
   44.635       97
   44.650       90
   44.665       75
   44.680       78
   44.695       87
   44.710       82
   44.725       76
   44.740       95
   44.755       70
   44.770       75
   44.785       78
   44.800       63
   44.815       77
   44.830       78
   44.845       76
   44.860       64
   44.875       67
   44.890       50
   44.905       67
   44.920       76
   44.935       77
   44.950       81
   44.965       73
   44.980       78
   44.995       77
   45.010       79
   45.025       74
   45.040       65
   45.055       67
   45.070       78
   45.085       59
   45.100       58
   45.115       68
   45.130       65
   45.145       67
   45.160       64
   45.175       64
   45.190       84
   45.205       76
   45.220       70
   45.235       65
   45.250       59
   45.265       75
   45.280       78
   45.295       64
   45.310       74
   45.325       68
   45.340       76
   45.355       70
   45.370       69
   45.385       67
   45.400       68
   45.415       64
   45.430       81
   45.445       72
   45.460       64
   45.475       75
   45.490       71
   45.505       69
   45.520       76
   45.535       58
   45.550       63
   45.565       73
   45.580       86
   45.595       83
   45.610       60
   45.625       76
   45.640       93
   45.655       80
   45.670       68
   45.685       73
   45.700       73
   45.715       72
   45.730       87
   45.745       66
   45.760       73
   45.775       64
   45.790       69
   45.805       59
   45.820       66
   45.835       61
   45.850       68
   45.865       74
   45.880       81
   45.895       80
   45.910       76
   45.925       75
   45.940       89
   45.955       75
   45.970       70
   45.985       80
