    4.000       45
    4.015       51
    4.030       49
    4.045       47
    4.060       40
    4.075       34
    4.090       41
    4.105       49
    4.120       46
    4.135       51
    4.150       50
    4.165       54
    4.180       40
    4.195       47
    4.210       40
    4.225       38
    4.240       45
    4.255       51
    4.270       46
    4.285       50
    4.300       58
    4.315       51
    4.330       56
    4.345       44
    4.360       44
    4.375       51
    4.390       44
    4.405       44
    4.420       46
    4.435       45
    4.450       51
    4.465       44
    4.480       49
    4.495       45
    4.510       51
    4.525       46
    4.540       43
    4.555       42
    4.570       43
    4.585       42
    4.600       47
    4.615       43
    4.630       48
    4.645       46
    4.660       40
    4.675       42
    4.690       56
    4.705       47
    4.720       50
    4.735       53
    4.750       41
    4.765       46
    4.780       46
    4.795       44
    4.810       40
    4.825       44
    4.840       53
    4.855       58
    4.870       46
    4.885       54
    4.900       65
    4.915       55
    4.930       50
    4.945       43
    4.960       45
    4.975       46
    4.990       43
    5.005       51
    5.020       59
    5.035       46
    5.050       44
    5.065       42
    5.080       44
    5.095       38
    5.110       46
    5.125       47
    5.140       45
    5.155       35
    5.170       48
    5.185       52
    5.200       47
    5.215       43
    5.230       42
    5.245       39
    5.260       42
    5.275       36
    5.290       43
    5.305       46
    5.320       44
    5.335       41
    5.350       42
    5.365       39
    5.380       48
    5.395       42
    5.410       46
    5.425       35
    5.440       43
    5.455       47
    5.470       41
    5.485       45
    5.500       42
    5.515       51
    5.530       41
    5.545       37
    5.560       50
    5.575       50
    5.590       48
    5.605       54
    5.620       40
    5.635       50
    5.650       54
    5.665       44
    5.680       44
    5.695       49
    5.710       63
    5.725       48
    5.740       57
    5.755       51
    5.770       46
    5.785       37
    5.800       37
    5.815       60
    5.830       55
    5.845       46
    5.860       51
    5.875       41
    5.890       45
    5.905       51
    5.920       50
    5.935       40
    5.950       38
    5.965       42
    5.980       49
    5.995       51
    6.010       45
    6.025       44
    6.040       44
    6.055       38
    6.070       45
    6.085       39
    6.100       33
    6.115       34
    6.130       43
    6.145       54
    6.160       41
    6.175       44
    6.190       43
    6.205       40
    6.220       52
    6.235       47
    6.250       58
    6.265       59
    6.280       57
    6.295       61
    6.310       64
    6.325       68
    6.340       65
    6.355       65
    6.370       84
    6.385       79
    6.400       90
    6.415       98
    6.430      108
    6.445      106
    6.460      104
    6.475      114
    6.490      132
    6.505      123
    6.520      124
    6.535      143
    6.550      171
    6.565      189
    6.580      197
    6.595      241
    6.610      244
    6.625      312
    6.640      359
    6.655      343
    6.670      317
    6.685      377
    6.700      364
    6.715      257
    6.730      161
    6.745       76
    6.760       42
    6.775       41
    6.790       38
    6.805       53
    6.820       47
    6.835       55
    6.850       49
    6.865       53
    6.880       41
    6.895       43
    6.910       50
    6.925       53
    6.940       52
    6.955       36
    6.970       38
    6.985       47
    7.000       47
    7.015       50
    7.030       54
    7.045       53
    7.060       48
    7.075       60
    7.090       49
    7.105       60
    7.120       52
    7.135       58
    7.150       72
    7.165       68
    7.180       86
    7.195       94
    7.210      140
    7.225      126
    7.240       97
    7.255       64
    7.270       48
    7.285       49
    7.300       51
    7.315       38
    7.330       46
    7.345       49
    7.360       38
    7.375       43
    7.390       41
    7.405       39
    7.420       47
    7.435       44
    7.450       43
    7.465       45
    7.480       49
    7.495       38
    7.510       44
    7.525       37
    7.540       41
    7.555       49
    7.570       56
    7.585       45
    7.600       46
    7.615       50
    7.630       47
    7.645       45
    7.660       42
    7.675       47
    7.690       49
    7.705       50
    7.720       46
    7.735       43
    7.750       48
    7.765       50
    7.780       46
    7.795       39
    7.810       40
    7.825       41
    7.840       40
    7.855       49
    7.870       45
    7.885       33
    7.900       37
    7.915       37
    7.930       44
    7.945       39
    7.960       41
    7.975       37
    7.990       42
    8.005       40
    8.020       37
    8.035       40
    8.050       36
    8.065       38
    8.080       44
    8.095       43
    8.110       49
    8.125       44
    8.140       44
    8.155       47
    8.170       50
    8.185       38
    8.200       41
    8.215       44
    8.230       38
    8.245       41
    8.260       43
    8.275       35
    8.290       48
    8.305       48
    8.320       45
    8.335       44
    8.350       39
    8.365       42
    8.380       36
    8.395       40
    8.410       40
    8.425       42
    8.440       47
    8.455       49
    8.470       43
    8.485       43
    8.500       52
    8.515       50
    8.530       35
    8.545       49
    8.560       45
    8.575       48
    8.590       69
    8.605       60
    8.620       59
    8.635       56
    8.650       52
    8.665       39
    8.680       45
    8.695       49
    8.710       38
    8.725       41
    8.740       35
    8.755       39
    8.770       47
    8.785       48
    8.800       42
    8.815       59
    8.830       56
    8.845       43
    8.860       44
    8.875       43
    8.890       46
    8.905       43
    8.920       38
    8.935       39
    8.950       48
    8.965       39
    8.980       44
    8.995       41
    9.010       47
    9.025       36
    9.040       51
    9.055       45
    9.070       47
    9.085       52
    9.100       41
    9.115       38
    9.130       34
    9.145       35
    9.160       34
    9.175       38
    9.190       32
    9.205       40
    9.220       35
    9.235       37
    9.250       47
    9.265       46
    9.280       39
    9.295       46
    9.310       44
    9.325       39
    9.340       43
    9.355       43
    9.370       38
    9.385       39
    9.400       34
    9.415       39
    9.430       35
    9.445       43
    9.460       33
    9.475       40
    9.490       45
    9.505       43
    9.520       42
    9.535       41
    9.550       39
    9.565       36
    9.580       42
    9.595       40
    9.610       48
    9.625       35
    9.640       41
    9.655       48
    9.670       52
    9.685       37
    9.700       36
    9.715       40
    9.730       41
    9.745       35
    9.760       54
    9.775       49
    9.790       34
    9.805       40
    9.820       42
    9.835       41
    9.850       55
    9.865       54
    9.880       58
    9.895       49
    9.910       45
    9.925       49
    9.940       44
    9.955       38
    9.970       38
    9.985       41
   10.000       52
   10.015       42
   10.030       39
   10.045       42
   10.060       42
   10.075       57
   10.090       49
   10.105       46
   10.120       45
   10.135       42
   10.150       40
   10.165       43
   10.180       56
   10.195       56
   10.210       56
   10.225       51
   10.240       56
   10.255       40
   10.270       41
   10.285       47
   10.300       54
   10.315       44
   10.330       48
   10.345       54
   10.360       44
   10.375       56
   10.390       61
   10.405       60
   10.420       57
   10.435       50
   10.450       55
   10.465       58
   10.480       68
   10.495       89
   10.510       90
   10.525      101
   10.540       84
   10.555       91
   10.570       76
   10.585       48
   10.600       43
   10.615       46
   10.630       44
   10.645       44
   10.660       54
   10.675       64
   10.690       65
   10.705       72
   10.720       65
   10.735       71
   10.750       91
   10.765       84
   10.780       83
   10.795       88
   10.810      118
   10.825      118
   10.840      142
   10.855      139
   10.870      153
   10.885      178
   10.900      203
   10.915      250
   10.930      216
   10.945      160
   10.960      120
   10.975       72
   10.990       52
   11.005       49
   11.020       48
   11.035       52
   11.050       48
   11.065       52
   11.080       56
   11.095       48
   11.110       39
   11.125       38
   11.140       38
   11.155       41
   11.170       45
   11.185       53
   11.200       50
   11.215       45
   11.230       51
   11.245       53
   11.260       72
   11.275       79
   11.290       77
   11.305       74
   11.320       72
   11.335       58
   11.350       45
   11.365       50
   11.380       47
   11.395       46
   11.410       54
   11.425       57
   11.440       56
   11.455       47
   11.470       60
   11.485       67
   11.500       74
   11.515       60
   11.530       57
   11.545       43
   11.560       39
   11.575       44
   11.590       47
   11.605       43
   11.620       39
   11.635       35
   11.650       50
   11.665       40
   11.680       50
   11.695       46
   11.710       47
   11.725       50
   11.740       62
   11.755       64
   11.770       61
   11.785       67
   11.800       70
   11.815       78
   11.830       66
   11.845       67
   11.860       66
   11.875       62
   11.890       64
   11.905       61
   11.920       65
   11.935       58
   11.950       63
   11.965       63
   11.980       50
   11.995       55
   12.010       57
   12.025       52
   12.040       57
   12.055       61
   12.070       59
   12.085       64
   12.100       74
   12.115       61
   12.130       76
   12.145       76
   12.160       53
   12.175       48
   12.190       39
   12.205       36
   12.220       41
   12.235       39
   12.250       42
   12.265       34
   12.280       38
   12.295       40
   12.310       45
   12.325       30
   12.340       33
   12.355       38
   12.370       42
   12.385       34
   12.400       43
   12.415       37
   12.430       40
   12.445       44
   12.460       48
   12.475       35
   12.490       38
   12.505       53
   12.520       51
   12.535       53
   12.550       48
   12.565       44
   12.580       59
   12.595       57
   12.610       75
   12.625       80
   12.640      102
   12.655      119
   12.670      124
   12.685      152
   12.700      156
   12.715      203
   12.730      252
   12.745      292
   12.760      279
   12.775      257
   12.790      202
   12.805      195
   12.820      169
   12.835      159
   12.850      145
   12.865      105
   12.880       65
   12.895       59
   12.910       46
   12.925       51
   12.940       49
   12.955       59
   12.970       68
   12.985       70
   13.000       73
   13.015       71
   13.030       72
   13.045       89
   13.060      104
   13.075      137
   13.090      175
   13.105      204
   13.120      272
   13.135      255
   13.150      216
   13.165      184
   13.180      154
   13.195      132
   13.210      163
   13.225      193
   13.240      234
   13.255      273
   13.270      322
   13.285      364
   13.300      448
   13.315      552
   13.330      564
   13.345      498
   13.360      426
   13.375      437
   13.390      542
   13.405      734
   13.420      979
   13.435      969
   13.450      734
   13.465      462
   13.480      239
   13.495      141
   13.510      103
   13.525       90
   13.540       93
   13.555       99
   13.570      112
   13.585      132
   13.600      133
   13.615      158
   13.630      196
   13.645      224
   13.660      271
   13.675      252
   13.690      309
   13.705      295
   13.720      259
   13.735      175
   13.750      105
   13.765       68
   13.780       52
   13.795       43
   13.810       45
   13.825       46
   13.840       43
   13.855       48
   13.870       48
   13.885       57
   13.900       57
   13.915       71
   13.930       70
   13.945       78
   13.960       77
   13.975       64
   13.990       47
   14.005       31
   14.020       33
   14.035       41
   14.050       38
   14.065       45
   14.080       38
   14.095       34
   14.110       40
   14.125       41
   14.140       37
   14.155       39
   14.170       37
   14.185       44
   14.200       53
   14.215       52
   14.230       65
   14.245       73
   14.260       74
   14.275       81
   14.290       87
   14.305       98
   14.320      132
   14.335      162
   14.350      146
   14.365      134
   14.380      145
   14.395      156
   14.410      159
   14.425      161
   14.440      130
   14.455      127
   14.470      144
   14.485      146
   14.500      144
   14.515      133
   14.530      143
   14.545      139
   14.560      159
   14.575      190
   14.590      231
   14.605      290
   14.620      344
   14.635      300
   14.650      190
   14.665      133
   14.680       79
   14.695       70
   14.710       47
   14.725       51
   14.740       42
   14.755       50
   14.770       37
   14.785       38
   14.800       40
   14.815       30
   14.830       29
   14.845       40
   14.860       40
   14.875       37
   14.890       34
   14.905       49
   14.920       39
   14.935       58
   14.950       47
   14.965       43
   14.980       48
   14.995       73
   15.010       83
   15.025       84
   15.040      108
   15.055      123
   15.070      151
   15.085      190
   15.100      195
   15.115      277
   15.130      333
   15.145      375
   15.160      406
   15.175      504
   15.190      600
   15.205      767
   15.220      796
   15.235      635
   15.250      439
   15.265      283
   15.280      178
   15.295      137
   15.310      125
   15.325      123
   15.340      111
   15.355      103
   15.370      107
   15.385      111
   15.400      146
   15.415      177
   15.430      225
   15.445      195
   15.460      183
   15.475      166
   15.490      152
   15.505      140
   15.520      141
   15.535      137
   15.550      140
   15.565      131
   15.580      143
   15.595      175
   15.610      261
   15.625      240
   15.640      252
   15.655      261
   15.670      254
   15.685      277
   15.700      342
   15.715      360
   15.730      328
   15.745      254
   15.760      168
   15.775      138
   15.790      130
   15.805      148
   15.820      186
   15.835      185
   15.850      198
   15.865      192
   15.880      254
   15.895      283
   15.910      301
   15.925      253
   15.940      172
   15.955      102
   15.970       82
   15.985       63
   16.000       49
   16.015       57
   16.030       52
   16.045       55
   16.060       49
   16.075       49
   16.090       54
   16.105       72
   16.120       74
   16.135       94
   16.150       94
   16.165      126
   16.180      140
   16.195      153
   16.210      220
   16.225      235
   16.240      272
   16.255      260
   16.270      276
   16.285      273
   16.300      194
   16.315      118
   16.330      100
   16.345       83
   16.360       59
   16.375       68
   16.390       80
   16.405      115
   16.420      135
   16.435      145
   16.450      153
   16.465      160
   16.480      171
   16.495      188
   16.510      221
   16.525      302
   16.540      406
   16.555      480
   16.570      473
   16.585      416
   16.600      297
   16.615      254
   16.630      247
   16.645      275
   16.660      345
   16.675      371
   16.690      384
   16.705      306
   16.720      276
   16.735      259
   16.750      248
   16.765      222
   16.780      203
   16.795      220
   16.810      261
   16.825      294
   16.840      321
   16.855      299
   16.870      291
   16.885      280
   16.900      315
   16.915      300
   16.930      304
   16.945      265
   16.960      217
   16.975      145
   16.990      105
   17.005      102
   17.020       79
   17.035       92
   17.050      110
   17.065      116
   17.080      132
   17.095      169
   17.110      187
   17.125      222
   17.140      272
   17.155      254
   17.170      224
   17.185      189
   17.200      160
   17.215      144
   17.230      141
   17.245      166
   17.260      185
   17.275      229
   17.290      265
   17.305      343
   17.320      391
   17.335      438
   17.350      456
   17.365      391
   17.380      336
   17.395      234
   17.410      177
   17.425      130
   17.440      130
   17.455      132
   17.470      133
   17.485      114
   17.500      106
   17.515       92
   17.530       95
   17.545      110
   17.560      121
   17.575      145
   17.590      179
   17.605      214
   17.620      252
   17.635      227
   17.650      195
   17.665      128
   17.680       92
   17.695       71
   17.710       63
   17.725       66
   17.740       82
   17.755       77
   17.770      105
   17.785      112
   17.800       92
   17.815      104
   17.830      106
   17.845       96
   17.860       85
   17.875       91
   17.890      104
   17.905      105
   17.920      102
   17.935       70
   17.950       75
   17.965       77
   17.980       65
   17.995       46
   18.010       48
   18.025       53
   18.040       64
   18.055       55
   18.070       54
   18.085       46
   18.100       49
   18.115       54
   18.130       48
   18.145       45
   18.160       40
   18.175       49
   18.190       46
   18.205       39
   18.220       30
   18.235       32
   18.250       41
   18.265       51
   18.280       62
   18.295       57
   18.310       64
   18.325       77
   18.340       91
   18.355      110
   18.370      128
   18.385      135
   18.400      169
   18.415      210
   18.430      216
   18.445      211
   18.460      217
   18.475      157
   18.490      124
   18.505      108
   18.520       80
   18.535       65
   18.550       54
   18.565       63
   18.580       55
   18.595       63
   18.610       50
   18.625       62
   18.640       76
   18.655       80
   18.670       88
   18.685      112
   18.700      135
   18.715      142
   18.730      155
   18.745      126
   18.760      113
   18.775      131
   18.790      141
   18.805      176
   18.820      144
   18.835      116
   18.850       94
   18.865       74
   18.880       78
   18.895       71
   18.910       55
   18.925       48
   18.940       54
   18.955       56
   18.970       55
   18.985       61
   19.000       82
   19.015       75
   19.030       77
   19.045       77
   19.060       78
   19.075       83
   19.090       87
   19.105       73
   19.120       83
   19.135      101
   19.150       64
   19.165       75
   19.180       60
   19.195       55
   19.210       50
   19.225       42
   19.240       53
   19.255       45
   19.270       40
   19.285       35
   19.300       32
   19.315       43
   19.330       48
   19.345       49
   19.360       39
   19.375       39
   19.390       42
   19.405       42
   19.420       51
   19.435       43
   19.450       41
   19.465       54
   19.480       47
   19.495       62
   19.510       92
   19.525       88
   19.540       76
   19.555       89
   19.570       80
   19.585       83
   19.600       79
   19.615       75
   19.630       69
   19.645       56
   19.660       65
   19.675       72
   19.690       83
   19.705      105
   19.720      122
   19.735      141
   19.750      147
   19.765      164
   19.780      159
   19.795      144
   19.810      112
   19.825       94
   19.840       73
   19.855       72
   19.870       68
   19.885       62
   19.900       65
   19.915       78
   19.930      110
   19.945      133
   19.960      160
   19.975      193
   19.990      240
   20.005      315
   20.020      400
   20.035      510
   20.050      586
   20.065      519
   20.080      369
   20.095      307
   20.110      251
   20.125      213
   20.140      241
   20.155      243
   20.170      264
   20.185      263
   20.200      227
   20.215      186
   20.230      142
   20.245      102
   20.260       83
   20.275       84
   20.290       61
   20.305       51
   20.320       63
   20.335       65
   20.350       73
   20.365       88
   20.380       92
   20.395      101
   20.410       88
   20.425       69
   20.440       61
   20.455       58
   20.470       44
   20.485       47
   20.500       54
   20.515       40
   20.530       37
   20.545       43
   20.560       45
   20.575       42
   20.590       32
   20.605       46
   20.620       47
   20.635       41
   20.650       55
   20.665       61
   20.680       56
   20.695       76
   20.710       83
   20.725       83
   20.740       76
   20.755       62
   20.770       73
   20.785       67
   20.800       72
   20.815       58
   20.830       60
   20.845       79
   20.860       90
   20.875      100
   20.890      110
   20.905      140
   20.920      164
   20.935      168
   20.950      182
   20.965      201
   20.980      170
   20.995      167
   21.010      179
   21.025      172
   21.040      171
   21.055      118
   21.070       93
   21.085       74
   21.100       66
   21.115       46
   21.130       56
   21.145       59
   21.160       61
   21.175       49
   21.190       43
   21.205       47
   21.220       54
   21.235       53
   21.250       57
   21.265       51
   21.280       49
   21.295       54
   21.310       65
   21.325       68
   21.340       70
   21.355       80
   21.370      105
   21.385      103
   21.400       95
   21.415       89
   21.430       83
   21.445       70
   21.460       60
   21.475       56
   21.490       46
   21.505       33
   21.520       31
   21.535       39
   21.550       52
   21.565       48
   21.580       45
   21.595       37
   21.610       49
   21.625       47
   21.640       35
   21.655       62
   21.670       71
   21.685       77
   21.700       96
   21.715       93
   21.730      125
   21.745      144
   21.760      188
   21.775      163
   21.790      167
   21.805      160
   21.820      119
   21.835      111
   21.850      122
   21.865      148
   21.880      167
   21.895      214
   21.910      287
   21.925      368
   21.940      515
   21.955      504
   21.970      387
   21.985      321
   22.000      190
   22.015      162
   22.030      127
   22.045      121
   22.060       96
   22.075       77
   22.090       94
   22.105       90
   22.120       74
   22.135       69
   22.150       56
   22.165       39
   22.180       42
   22.195       51
   22.210       40
   22.225       37
   22.240       38
   22.255       45
   22.270       52
   22.285       58
   22.300       42
   22.315       56
   22.330       45
   22.345       61
   22.360       59
   22.375       46
   22.390       52
   22.405       60
   22.420       57
   22.435       69
   22.450       93
   22.465       96
   22.480       86
   22.495       67
   22.510       83
   22.525       92
   22.540      105
   22.555      110
   22.570       95
   22.585       84
   22.600       74
   22.615       50
   22.630       52
   22.645       58
   22.660       62
   22.675       78
   22.690       86
   22.705       96
   22.720       90
   22.735       98
   22.750       99
   22.765      119
   22.780      155
   22.795      137
   22.810      133
   22.825      114
   22.840       96
   22.855       95
   22.870       90
   22.885       93
   22.900       97
   22.915      103
   22.930      122
   22.945      135
   22.960      138
   22.975      156
   22.990      153
   23.005      146
   23.020      126
   23.035      112
   23.050       98
   23.065       94
   23.080       74
   23.095       70
   23.110       61
   23.125       47
   23.140       60
   23.155       53
   23.170       41
   23.185       61
   23.200       65
   23.215       66
   23.230       64
   23.245       69
   23.260       67
   23.275       68
   23.290       78
   23.305       78
   23.320       84
   23.335       88
   23.350      102
   23.365      120
   23.380      115
   23.395       70
   23.410       64
   23.425       50
   23.440       50
   23.455       44
   23.470       54
   23.485       48
   23.500       43
   23.515       47
   23.530       59
   23.545       59
   23.560       60
   23.575       59
   23.590       57
   23.605       58
   23.620       58
   23.635       57
   23.650       60
   23.665       49
   23.680       48
   23.695       51
   23.710       59
   23.725       67
   23.740       69
   23.755       68
   23.770       70
   23.785       59
   23.800       56
   23.815       55
   23.830       46
   23.845       58
   23.860       53
   23.875       45
   23.890       44
   23.905       44
   23.920       50
   23.935       51
   23.950       62
   23.965       65
   23.980       65
   23.995       65
   24.010       64
   24.025       65
   24.040       44
   24.055       49
   24.070       55
   24.085       51
   24.100       65
   24.115       57
   24.130       94
   24.145       98
   24.160       99
   24.175       88
   24.190       66
   24.205       58
   24.220       56
   24.235       60
   24.250       46
   24.265       46
   24.280       47
   24.295       47
   24.310       49
   24.325       57
   24.340       60
   24.355       70
   24.370       68
   24.385       76
   24.400       82
   24.415       90
   24.430       82
   24.445       68
   24.460       66
   24.475       47
   24.490       48
   24.505       46
   24.520       38
   24.535       37
   24.550       45
   24.565       55
   24.580       37
   24.595       44
   24.610       40
   24.625       43
   24.640       47
   24.655       49
   24.670       47
   24.685       66
   24.700       71
   24.715       82
   24.730       79
   24.745       84
   24.760       96
   24.775       93
   24.790       83
   24.805       80
   24.820       83
   24.835       56
   24.850       51
   24.865       54
   24.880       57
   24.895       61
   24.910       64
   24.925       60
   24.940       77
   24.955       71
   24.970       71
   24.985       51
   25.000       55
   25.015       43
   25.030       46
   25.045       45
   25.060       48
   25.075       64
   25.090       68
   25.105       76
   25.120      111
   25.135      149
   25.150      128
   25.165      106
   25.180      109
   25.195       85
   25.210       65
   25.225       69
   25.240       67
   25.255       79
   25.270       65
   25.285       57
   25.300       49
   25.315       72
   25.330       70
   25.345       73
   25.360       79
   25.375       73
   25.390       68
   25.405       76
   25.420       61
   25.435       58
   25.450       50
   25.465       50
   25.480       42
   25.495       53
   25.510       62
   25.525       68
   25.540       86
   25.555       98
   25.570      107
   25.585      117
   25.600      110
   25.615       93
   25.630       81
   25.645       58
   25.660       71
   25.675       64
   25.690       54
   25.705       65
   25.720       73
   25.735       62
   25.750       93
   25.765      103
   25.780      123
   25.795      129
   25.810      158
   25.825      178
   25.840      188
   25.855      178
   25.870      157
   25.885      123
   25.900      113
   25.915       91
   25.930       74
   25.945       69
   25.960       75
   25.975       87
   25.990       95
   26.005      109
   26.020      127
   26.035      131
   26.050      161
   26.065      152
   26.080      116
   26.095      110
   26.110       91
   26.125       74
   26.140       76
   26.155       74
   26.170       69
   26.185       70
   26.200       63
   26.215       59
   26.230       58
   26.245       57
   26.260       84
   26.275       75
   26.290       85
   26.305       93
   26.320      103
   26.335      111
   26.350      125
   26.365      121
   26.380      109
   26.395       85
   26.410       71
   26.425       61
   26.440       53
   26.455       56
   26.470       70
   26.485       70
   26.500       59
   26.515       86
   26.530       85
   26.545       78
   26.560       69
   26.575       62
   26.590       57
   26.605       50
   26.620       37
   26.635       43
   26.650       53
   26.665       46
   26.680       44
   26.695       45
   26.710       58
   26.725       50
   26.740       48
   26.755       49
   26.770       47
   26.785       64
   26.800       56
   26.815       78
   26.830       90
   26.845       93
   26.860       71
   26.875       70
   26.890       60
   26.905       62
   26.920       56
   26.935       50
   26.950       39
   26.965       51
   26.980       56
   26.995       66
   27.010       74
   27.025      103
   27.040      125
   27.055      148
   27.070      152
   27.085      126
   27.100      152
   27.115      152
   27.130      140
   27.145      143
   27.160      141
   27.175      118
   27.190      106
   27.205       93
   27.220       59
   27.235       63
   27.250       59
   27.265       66
   27.280       55
   27.295       73
   27.310       67
   27.325       56
   27.340       49
   27.355       50
   27.370       69
   27.385       62
   27.400       75
   27.415       67
   27.430       68
   27.445       62
   27.460       54
   27.475       69
   27.490       64
   27.505       70
   27.520       77
   27.535       77
   27.550       69
   27.565       78
   27.580       87
   27.595      100
   27.610      111
   27.625       98
   27.640       94
   27.655       87
   27.670      107
   27.685      127
   27.700      125
   27.715      132
   27.730      151
   27.745      178
   27.760      191
   27.775      196
   27.790      225
   27.805      214
   27.820      187
   27.835      144
   27.850      143
   27.865      112
   27.880      107
   27.895       83
   27.910       87
   27.925       77
   27.940       73
   27.955       74
   27.970       80
   27.985       90
   28.000      112
   28.015      112
   28.030      117
   28.045      129
   28.060      111
   28.075      120
   28.090      107
   28.105      110
   28.120      104
   28.135      104
   28.150       76
   28.165       80
   28.180       79
   28.195       75
   28.210       74
   28.225       63
   28.240       63
   28.255       70
   28.270       69
   28.285       59
   28.300       58
   28.315       71
   28.330       61
   28.345       68
   28.360       65
   28.375       73
   28.390       81
   28.405       73
   28.420       84
   28.435       85
   28.450       89
   28.465       91
   28.480       89
   28.495       93
   28.510       91
   28.525       92
   28.540       99
   28.555       83
   28.570       77
   28.585       92
   28.600      107
   28.615      106
   28.630       97
   28.645       70
   28.660       57
   28.675       57
   28.690       65
   28.705       51
   28.720       39
   28.735       48
   28.750       40
   28.765       49
   28.780       61
   28.795       60
   28.810       58
   28.825       71
   28.840       62
   28.855       64
   28.870       62
   28.885       59
   28.900       71
   28.915       69
   28.930       61
   28.945       59
   28.960       59
   28.975       59
   28.990       62
   29.005       77
   29.020       80
   29.035       85
   29.050       98
   29.065       96
   29.080       89
   29.095       90
   29.110      101
   29.125      103
   29.140       88
   29.155      105
   29.170      108
   29.185       98
   29.200       96
   29.215      112
   29.230      125
   29.245      124
   29.260      127
   29.275      117
   29.290      103
   29.305       86
   29.320       77
   29.335       76
   29.350       74
   29.365       77
   29.380       75
   29.395       75
   29.410       76
   29.425       79
   29.440       79
   29.455       77
   29.470       65
   29.485       65
   29.500       65
   29.515       56
   29.530       67
   29.545       76
   29.560       49
   29.575       46
   29.590       48
   29.605       42
   29.620       45
   29.635       52
   29.650       60
   29.665       59
   29.680       68
   29.695       64
   29.710       76
   29.725       78
   29.740       92
   29.755      110
   29.770      103
   29.785      120
   29.800      103
   29.815       94
   29.830       98
   29.845      110
   29.860      118
   29.875      112
   29.890      123
   29.905      124
   29.920      117
   29.935      106
   29.950       92
   29.965       80
   29.980       72
   29.995       81
   30.010       72
   30.025       56
   30.040       56
   30.055       73
   30.070       58
   30.085       57
   30.100       49
   30.115       47
   30.130       44
   30.145       43
   30.160       43
   30.175       53
   30.190       46
   30.205       53
   30.220       40
   30.235       34
   30.250       38
   30.265       50
   30.280       42
   30.295       51
   30.310       49
   30.325       36
   30.340       44
   30.355       46
   30.370       44
   30.385       44
   30.400       44
   30.415       47
   30.430       58
   30.445       49
   30.460       58
   30.475       66
   30.490       42
   30.505       58
   30.520       52
   30.535       62
   30.550       59
   30.565       49
   30.580       63
   30.595       53
   30.610       54
   30.625       71
   30.640       56
   30.655       60
   30.670       56
   30.685       67
   30.700       95
   30.715       89
   30.730      106
   30.745      110
   30.760      107
   30.775      101
   30.790       99
   30.805       86
   30.820      100
   30.835       95
   30.850       93
   30.865      110
   30.880       82
   30.895       73
   30.910       71
   30.925       64
   30.940       47
   30.955       54
   30.970       53
   30.985       61
   31.000       50
   31.015       58
   31.030       56
   31.045       63
   31.060       67
   31.075       59
   31.090       69
   31.105       83
   31.120       91
   31.135       94
   31.150      104
   31.165       90
   31.180       86
   31.195       77
   31.210       90
   31.225      100
   31.240       84
   31.255       89
   31.270       78
   31.285       69
   31.300       61
   31.315       64
   31.330       50
   31.345       59
   31.360       62
   31.375       72
   31.390       78
   31.405       70
   31.420       73
   31.435       75
   31.450       80
   31.465       63
   31.480       62
   31.495       71
   31.510       87
   31.525       89
   31.540       93
   31.555       79
   31.570       74
   31.585       68
   31.600       65
   31.615       71
   31.630       78
   31.645       70
   31.660       57
   31.675       65
   31.690       70
   31.705       65
   31.720       75
   31.735       89
   31.750       84
   31.765       86
   31.780       97
   31.795       93
   31.810       92
   31.825       85
   31.840       68
   31.855       80
   31.870       90
   31.885       89
   31.900       88
   31.915      105
   31.930       95
   31.945       83
   31.960       87
   31.975       86
   31.990       94
   32.005       93
   32.020       81
   32.035       80
   32.050       87
   32.065       99
   32.080       80
   32.095       83
   32.110       86
   32.125       92
   32.140       91
   32.155       97
   32.170       85
   32.185       83
   32.200       84
   32.215       68
   32.230       71
   32.245       75
   32.260       70
   32.275       79
   32.290       93
   32.305      101
   32.320      100
   32.335       97
   32.350      113
   32.365       88
   32.380       74
   32.395       68
   32.410       65
   32.425       70
   32.440       57
   32.455       63
   32.470       47
   32.485       51
   32.500       50
   32.515       54
   32.530       66
   32.545       61
   32.560       59
   32.575       74
   32.590       66
   32.605       71
   32.620       71
   32.635       65
   32.650       68
   32.665       56
   32.680       61
   32.695       44
   32.710       54
   32.725       41
   32.740       50
   32.755       42
   32.770       35
   32.785       40
   32.800       46
   32.815       48
   32.830       55
   32.845       51
   32.860       51
   32.875       49
   32.890       42
   32.905       44
   32.920       48
   32.935       47
   32.950       33
   32.965       42
   32.980       48
   32.995       43
   33.010       45
   33.025       39
   33.040       45
   33.055       60
   33.070       57
   33.085       55
   33.100       72
   33.115       70
   33.130       97
   33.145       95
   33.160       93
   33.175       78
   33.190       89
   33.205       73
   33.220       71
   33.235       68
   33.250       58
   33.265       54
   33.280       64
   33.295       56
   33.310       46
   33.325       48
   33.340       63
   33.355       62
   33.370       52
   33.385       50
   33.400       55
   33.415       64
   33.430       59
   33.445       53
   33.460       53
   33.475       46
   33.490       56
   33.505       61
   33.520       54
   33.535       49
   33.550       54
   33.565       62
   33.580       58
   33.595       76
   33.610       75
   33.625       80
   33.640      101
   33.655       91
   33.670       96
   33.685      115
   33.700      123
   33.715      133
   33.730      119
   33.745      118
   33.760      111
   33.775       91
   33.790       94
   33.805       98
   33.820       85
   33.835       82
   33.850       95
   33.865       67
   33.880       68
   33.895       80
   33.910       61
   33.925       66
   33.940       77
   33.955       73
   33.970       64
   33.985       71
   34.000       79
   34.015       90
   34.030      101
   34.045       91
   34.060       99
   34.075       92
   34.090       99
   34.105       84
   34.120       58
   34.135       58
   34.150       64
   34.165       71
   34.180       77
   34.195       75
   34.210       77
   34.225       80
   34.240       99
   34.255       83
   34.270       75
   34.285       76
   34.300       71
   34.315       67
   34.330       65
   34.345       82
   34.360       71
   34.375       60
   34.390       55
   34.405       53
   34.420       47
   34.435       51
   34.450       43
   34.465       46
   34.480       48
   34.495       54
   34.510       39
   34.525       43
   34.540       50
   34.555       45
   34.570       55
   34.585       45
   34.600       45
   34.615       49
   34.630       59
   34.645       66
   34.660       67
   34.675       66
   34.690       71
   34.705       62
   34.720       62
   34.735       65
   34.750       72
   34.765       72
   34.780       72
   34.795       65
   34.810       48
   34.825       46
   34.840       45
   34.855       47
   34.870       37
   34.885       43
   34.900       47
   34.915       43
   34.930       45
   34.945       42
   34.960       43
   34.975       43
   34.990       50
   35.005       63
   35.020       65
   35.035       50
   35.050       47
   35.065       51
   35.080       48
   35.095       62
   35.110       64
   35.125       54
   35.140       52
   35.155       58
   35.170       61
   35.185       51
   35.200       44
   35.215       45
   35.230       53
   35.245       68
   35.260       83
   35.275       67
   35.290       70
   35.305       63
   35.320       66
   35.335       68
   35.350       73
   35.365       73
   35.380       66
   35.395       69
   35.410       52
   35.425       50
   35.440       60
   35.455       63
   35.470       80
   35.485       69
   35.500       69
   35.515       70
   35.530       66
   35.545       73
   35.560       84
   35.575       86
   35.590       90
   35.605       79
   35.620       77
   35.635       76
   35.650       85
   35.665      115
   35.680      111
   35.695      105
   35.710       88
   35.725      107
   35.740      101
   35.755       77
   35.770       81
   35.785       86
   35.800      108
   35.815      107
   35.830      101
   35.845       90
   35.860       84
   35.875       86
   35.890       70
   35.905       65
   35.920       59
   35.935       59
   35.950       64
   35.965       57
   35.980       55
   35.995       63
   36.010       46
   36.025       46
   36.040       46
   36.055       48
   36.070       54
   36.085       45
   36.100       43
   36.115       56
   36.130       33
   36.145       39
   36.160       42
   36.175       40
   36.190       46
   36.205       46
   36.220       45
   36.235       49
   36.250       50
   36.265       44
   36.280       49
   36.295       44
   36.310       56
   36.325       51
   36.340       45
   36.355       46
   36.370       48
   36.385       61
   36.400       55
   36.415       47
   36.430       53
   36.445       49
   36.460       45
   36.475       49
   36.490       53
   36.505       55
   36.520       70
   36.535       61
   36.550       53
   36.565       59
   36.580       56
   36.595       56
   36.610       49
   36.625       57
   36.640       48
   36.655       41
   36.670       48
   36.685       42
   36.700       45
   36.715       47
   36.730       58
   36.745       53
   36.760       48
   36.775       52
   36.790       58
   36.805       55
   36.820       49
   36.835       52
   36.850       51
   36.865       44
   36.880       48
   36.895       41
   36.910       51
   36.925       57
   36.940       62
   36.955       55
   36.970       60
   36.985       72
   37.000       72
   37.015       71
   37.030       73
   37.045       69
   37.060       69
   37.075       65
   37.090       52
   37.105       53
   37.120       71
   37.135       68
   37.150       54
   37.165       65
   37.180       55
   37.195       47
   37.210       52
   37.225       50
   37.240       49
   37.255       62
   37.270       60
   37.285       67
   37.300       66
   37.315       71
   37.330       70
   37.345       68
   37.360       65
   37.375       63
   37.390       62
   37.405       60
   37.420       52
   37.435       49
   37.450       57
   37.465       59
   37.480       70
   37.495       68
   37.510       64
   37.525       63
   37.540       63
   37.555       60
   37.570       58
   37.585       55
   37.600       61
   37.615       49
   37.630       43
   37.645       36
   37.660       34
   37.675       24
   37.690       30
   37.705       31
   37.720       33
   37.735       48
   37.750       46
   37.765       35
   37.780       40
   37.795       48
   37.810       51
   37.825       49
   37.840       47
   37.855       45
   37.870       51
   37.885       52
   37.900       60
   37.915       51
   37.930       48
   37.945       48
   37.960       51
   37.975       55
   37.990       56
   38.005       50
   38.020       50
   38.035       61
   38.050       50
   38.065       48
   38.080       54
   38.095       51
   38.110       49
   38.125       46
   38.140       46
   38.155       42
   38.170       40
   38.185       46
   38.200       50
   38.215       46
   38.230       42
   38.245       52
   38.260       47
   38.275       48
   38.290       54
   38.305       60
   38.320       59
   38.335       50
   38.350       41
   38.365       38
   38.380       41
   38.395       35
   38.410       33
   38.425       51
   38.440       53
   38.455       53
   38.470       55
   38.485       61
   38.500       64
   38.515       62
   38.530       51
   38.545       43
   38.560       58
   38.575       65
   38.590       70
   38.605       79
   38.620       69
   38.635       70
   38.650       65
   38.665       64
   38.680       56
   38.695       51
   38.710       40
   38.725       48
   38.740       49
   38.755       47
   38.770       48
   38.785       63
   38.800       50
   38.815       58
   38.830       50
   38.845       51
   38.860       44
   38.875       58
   38.890       44
   38.905       52
   38.920       53
   38.935       66
   38.950       64
   38.965       61
   38.980       51
   38.995       62
   39.010       65
   39.025       50
   39.040       66
   39.055       74
   39.070       75
   39.085       77
   39.100       71
   39.115       61
   39.130       57
   39.145       56
   39.160       63
   39.175       67
   39.190       63
   39.205       66
   39.220       65
   39.235       66
   39.250       57
   39.265       41
   39.280       43
   39.295       54
   39.310       51
   39.325       52
   39.340       56
   39.355       48
   39.370       49
   39.385       44
   39.400       41
   39.415       36
   39.430       35
   39.445       46
   39.460       39
   39.475       43
   39.490       58
   39.505       38
   39.520       40
   39.535       49
   39.550       56
   39.565       46
   39.580       45
   39.595       46
   39.610       48
   39.625       46
   39.640       46
   39.655       52
   39.670       46
   39.685       48
   39.700       46
   39.715       42
   39.730       43
   39.745       51
   39.760       47
   39.775       51
   39.790       46
   39.805       40
   39.820       43
   39.835       44
   39.850       47
   39.865       47
   39.880       48
   39.895       37
   39.910       46
   39.925       44
   39.940       49
   39.955       61
   39.970       65
   39.985       59
   40.000       58
   40.015       65
   40.030       56
   40.045       38
   40.060       49
   40.075       57
   40.090       61
   40.105       57
   40.120       70
   40.135       75
   40.150       73
   40.165       64
   40.180       63
   40.195       63
   40.210       57
   40.225       54
   40.240       52
   40.255       59
   40.270       47
   40.285       52
   40.300       60
   40.315       44
   40.330       37
   40.345       43
   40.360       52
   40.375       49
   40.390       54
   40.405       49
   40.420       46
   40.435       52
   40.450       57
   40.465       56
   40.480       45
   40.495       52
   40.510       53
   40.525       50
   40.540       44
   40.555       45
   40.570       55
   40.585       48
   40.600       40
   40.615       64
   40.630       67
   40.645       62
   40.660       69
   40.675       63
   40.690       60
   40.705       51
   40.720       51
   40.735       62
   40.750       52
   40.765       61
   40.780       62
   40.795       63
   40.810       66
   40.825       58
   40.840       55
   40.855       56
   40.870       50
   40.885       49
   40.900       46
   40.915       56
   40.930       62
   40.945       60
   40.960       60
   40.975       58
   40.990       60
   41.005       60
   41.020       71
   41.035       69
   41.050       75
   41.065       70
   41.080       69
   41.095       63
   41.110       62
   41.125       63
   41.140       75
   41.155       68
   41.170       64
   41.185       58
   41.200       52
   41.215       53
   41.230       41
   41.245       48
   41.260       49
   41.275       46
   41.290       41
   41.305       36
   41.320       47
   41.335       39
   41.350       43
   41.365       51
   41.380       44
   41.395       38
   41.410       42
   41.425       41
   41.440       49
   41.455       60
   41.470       52
   41.485       56
   41.500       54
   41.515       53
   41.530       48
   41.545       39
   41.560       38
   41.575       43
   41.590       36
   41.605       43
   41.620       39
   41.635       36
   41.650       44
   41.665       42
   41.680       47
   41.695       48
   41.710       52
   41.725       40
   41.740       48
   41.755       53
   41.770       44
   41.785       55
   41.800       49
   41.815       38
   41.830       43
   41.845       48
   41.860       48
   41.875       47
   41.890       45
   41.905       45
   41.920       46
   41.935       47
   41.950       43
   41.965       52
   41.980       47
   41.995       45
   42.010       62
   42.025       57
   42.040       55
   42.055       53
   42.070       52
   42.085       58
   42.100       66
   42.115       50
   42.130       47
   42.145       52
   42.160       53
   42.175       45
   42.190       49
   42.205       47
   42.220       49
   42.235       49
   42.250       53
   42.265       46
   42.280       46
   42.295       50
   42.310       47
   42.325       42
   42.340       48
   42.355       45
   42.370       55
   42.385       54
   42.400       58
   42.415       54
   42.430       50
   42.445       50
   42.460       48
   42.475       50
   42.490       41
   42.505       43
   42.520       49
   42.535       45
   42.550       49
   42.565       41
   42.580       50
   42.595       52
   42.610       55
   42.625       67
   42.640       64
   42.655       67
   42.670       64
   42.685       58
   42.700       70
   42.715       55
   42.730       56
   42.745       38
   42.760       52
   42.775       40
   42.790       47
   42.805       62
   42.820       59
   42.835       60
   42.850       51
   42.865       57
   42.880       44
   42.895       46
   42.910       50
   42.925       43
   42.940       44
   42.955       35
   42.970       38
   42.985       44
   43.000       47
   43.015       38
   43.030       35
   43.045       42
   43.060       37
   43.075       40
   43.090       41
   43.105       36
   43.120       41
   43.135       33
   43.150       33
   43.165       40
   43.180       42
   43.195       44
   43.210       40
   43.225       43
   43.240       47
   43.255       50
   43.270       38
   43.285       39
   43.300       45
   43.315       36
   43.330       41
   43.345       37
   43.360       44
   43.375       35
   43.390       33
   43.405       43
   43.420       39
   43.435       46
   43.450       47
   43.465       53
   43.480       47
   43.495       51
   43.510       47
   43.525       50
   43.540       55
   43.555       49
   43.570       50
   43.585       49
   43.600       43
   43.615       40
   43.630       40
   43.645       45
   43.660       44
   43.675       46
   43.690       43
   43.705       42
   43.720       41
   43.735       37
   43.750       41
   43.765       35
   43.780       33
   43.795       39
   43.810       33
   43.825       36
   43.840       39
   43.855       41
   43.870       35
   43.885       31
   43.900       38
   43.915       46
   43.930       53
   43.945       46
   43.960       40
   43.975       48
   43.990       47
   44.005       52
   44.020       55
   44.035       46
   44.050       47
   44.065       45
   44.080       41
   44.095       42
   44.110       49
   44.125       48
   44.140       43
   44.155       44
   44.170       45
   44.185       43
   44.200       49
   44.215       47
   44.230       36
   44.245       49
   44.260       49
   44.275       42
   44.290       46
   44.305       42
   44.320       38
   44.335       51
   44.350       56
   44.365       59
   44.380       59
   44.395       56
   44.410       55
   44.425       48
   44.440       46
   44.455       53
   44.470       59
   44.485       68
   44.500       53
   44.515       60
   44.530       51
   44.545       48
   44.560       53
   44.575       51
   44.590       53
   44.605       54
   44.620       46
   44.635       42
   44.650       37
   44.665       42
   44.680       54
   44.695       40
   44.710       44
   44.725       37
   44.740       37
   44.755       50
   44.770       35
   44.785       40
   44.800       45
   44.815       41
   44.830       41
   44.845       41
   44.860       47
   44.875       43
   44.890       47
   44.905       40
   44.920       42
   44.935       45
   44.950       43
   44.965       45
   44.980       45
   44.995       57
   45.010       56
   45.025       52
   45.040       52
   45.055       58
   45.070       69
   45.085       54
   45.100       50
   45.115       49
   45.130       50
   45.145       69
   45.160       59
   45.175       60
   45.190       53
   45.205       48
   45.220       51
   45.235       57
   45.250       57
   45.265       58
   45.280       63
   45.295       60
   45.310       56
   45.325       66
   45.340       61
   45.355       50
   45.370       56
   45.385       66
   45.400       59
   45.415       62
   45.430       57
   45.445       62
   45.460       55
   45.475       53
   45.490       57
   45.505       44
   45.520       45
   45.535       47
   45.550       59
   45.565       49
   45.580       43
   45.595       42
   45.610       39
   45.625       40
   45.640       39
   45.655       35
   45.670       51
   45.685       47
   45.700       44
   45.715       42
   45.730       48
   45.745       38
   45.760       43
   45.775       34
   45.790       53
   45.805       64
   45.820       46
   45.835       48
   45.850       47
   45.865       44
   45.880       53
   45.895       50
   45.910       44
   45.925       42
   45.940       44
   45.955       41
   45.970       31
   45.985       39
