    4.000       55
    4.015       46
    4.030       67
    4.045       71
    4.060       54
    4.075       42
    4.090       53
    4.105       64
    4.120       52
    4.135       61
    4.150       46
    4.165       59
    4.180       50
    4.195       56
    4.210       49
    4.225       56
    4.240       55
    4.255       39
    4.270       36
    4.285       53
    4.300       66
    4.315       50
    4.330       49
    4.345       48
    4.360       42
    4.375       62
    4.390       44
    4.405       52
    4.420       41
    4.435       52
    4.450       45
    4.465       52
    4.480       54
    4.495       56
    4.510       52
    4.525       55
    4.540       58
    4.555       50
    4.570       43
    4.585       43
    4.600       47
    4.615       50
    4.630       50
    4.645       52
    4.660       54
    4.675       59
    4.690       47
    4.705       60
    4.720       56
    4.735       52
    4.750       43
    4.765       56
    4.780       45
    4.795       47
    4.810       52
    4.825       44
    4.840       60
    4.855       53
    4.870       46
    4.885       52
    4.900       57
    4.915       45
    4.930       48
    4.945       44
    4.960       45
    4.975       46
    4.990       53
    5.005       60
    5.020       59
    5.035       53
    5.050       46
    5.065       46
    5.080       54
    5.095       54
    5.110       49
    5.125       49
    5.140       46
    5.155       42
    5.170       44
    5.185       45
    5.200       54
    5.215       49
    5.230       45
    5.245       38
    5.260       60
    5.275       49
    5.290       44
    5.305       44
    5.320       33
    5.335       49
    5.350       66
    5.365       56
    5.380       56
    5.395       51
    5.410       47
    5.425       50
    5.440       56
    5.455       48
    5.470       45
    5.485       51
    5.500       52
    5.515       54
    5.530       51
    5.545       51
    5.560       50
    5.575       44
    5.590       53
    5.605       59
    5.620       47
    5.635       47
    5.650       44
    5.665       41
    5.680       47
    5.695       45
    5.710       40
    5.725       52
    5.740       53
    5.755       50
    5.770       52
    5.785       53
    5.800       58
    5.815       47
    5.830       47
    5.845       51
    5.860       45
    5.875       40
    5.890       52
    5.905       53
    5.920       52
    5.935       47
    5.950       44
    5.965       52
    5.980       45
    5.995       44
    6.010       60
    6.025       45
    6.040       50
    6.055       55
    6.070       41
    6.085       46
    6.100       45
    6.115       54
    6.130       55
    6.145       62
    6.160       65
    6.175       50
    6.190       54
    6.205       62
    6.220       54
    6.235       51
    6.250       41
    6.265       56
    6.280       67
    6.295       57
    6.310       71
    6.325       67
    6.340       71
    6.355       76
    6.370       60
    6.385       66
    6.400       64
    6.415       86
    6.430       89
    6.445       91
    6.460       85
    6.475       86
    6.490      104
    6.505      110
    6.520      124
    6.535      130
    6.550      166
    6.565      205
    6.580      188
    6.595      174
    6.610      190
    6.625      177
    6.640      205
    6.655      187
    6.670      126
    6.685       74
    6.700       54
    6.715       48
    6.730       44
    6.745       42
    6.760       47
    6.775       53
    6.790       40
    6.805       47
    6.820       47
    6.835       41
    6.850       49
    6.865       45
    6.880       56
    6.895       44
    6.910       47
    6.925       57
    6.940       58
    6.955       51
    6.970       54
    6.985       66
    7.000       45
    7.015       51
    7.030       63
    7.045       55
    7.060       62
    7.075       58
    7.090       72
    7.105       64
    7.120       78
    7.135       91
    7.150       92
    7.165      111
    7.180       83
    7.195       68
    7.210       57
    7.225       61
    7.240       46
    7.255       41
    7.270       50
    7.285       56
    7.300       50
    7.315       45
    7.330       48
    7.345       43
    7.360       49
    7.375       53
    7.390       44
    7.405       54
    7.420       47
    7.435       45
    7.450       45
    7.465       40
    7.480       44
    7.495       52
    7.510       44
    7.525       44
    7.540       49
    7.555       60
    7.570       54
    7.585       56
    7.600       49
    7.615       54
    7.630       47
    7.645       45
    7.660       48
    7.675       47
    7.690       45
    7.705       39
    7.720       50
    7.735       48
    7.750       47
    7.765       45
    7.780       35
    7.795       45
    7.810       46
    7.825       46
    7.840       42
    7.855       44
    7.870       45
    7.885       49
    7.900       43
    7.915       43
    7.930       56
    7.945       54
    7.960       51
    7.975       50
    7.990       40
    8.005       36
    8.020       46
    8.035       41
    8.050       39
    8.065       42
    8.080       38
    8.095       45
    8.110       45
    8.125       40
    8.140       53
    8.155       53
    8.170       48
    8.185       43
    8.200       42
    8.215       46
    8.230       43
    8.245       44
    8.260       48
    8.275       50
    8.290       45
    8.305       41
    8.320       44
    8.335       50
    8.350       52
    8.365       42
    8.380       44
    8.395       50
    8.410       48
    8.425       48
    8.440       50
    8.455       54
    8.470       52
    8.485       61
    8.500       63
    8.515       56
    8.530       52
    8.545       61
    8.560       56
    8.575       52
    8.590       41
    8.605       48
    8.620       49
    8.635       56
    8.650       51
    8.665       46
    8.680       43
    8.695       46
    8.710       30
    8.725       58
    8.740       46
    8.755       43
    8.770       44
    8.785       38
    8.800       48
    8.815       34
    8.830       51
    8.845       49
    8.860       66
    8.875       52
    8.890       49
    8.905       57
    8.920       41
    8.935       37
    8.950       43
    8.965       37
    8.980       46
    8.995       53
    9.010       41
    9.025       42
    9.040       50
    9.055       62
    9.070       58
    9.085       53
    9.100       48
    9.115       52
    9.130       49
    9.145       41
    9.160       41
    9.175       51
    9.190       40
    9.205       44
    9.220       47
    9.235       46
    9.250       43
    9.265       61
    9.280       43
    9.295       43
    9.310       59
    9.325       48
    9.340       51
    9.355       49
    9.370       43
    9.385       42
    9.400       49
    9.415       45
    9.430       48
    9.445       52
    9.460       57
    9.475       52
    9.490       45
    9.505       45
    9.520       52
    9.535       51
    9.550       61
    9.565       54
    9.580       47
    9.595       39
    9.610       40
    9.625       45
    9.640       52
    9.655       49
    9.670       54
    9.685       59
    9.700       48
    9.715       51
    9.730       60
    9.745       62
    9.760       68
    9.775       58
    9.790       56
    9.805       58
    9.820       46
    9.835       49
    9.850       47
    9.865       40
    9.880       54
    9.895       46
    9.910       62
    9.925       43
    9.940       46
    9.955       46
    9.970       47
    9.985       53
   10.000       56
   10.015       45
   10.030       41
   10.045       51
   10.060       55
   10.075       52
   10.090       54
   10.105       50
   10.120       54
   10.135       65
   10.150       58
   10.165       57
   10.180       57
   10.195       49
   10.210       56
   10.225       51
   10.240       66
   10.255       65
   10.270       62
   10.285       49
   10.300       64
   10.315       63
   10.330       58
   10.345       58
   10.360       59
   10.375       68
   10.390       63
   10.405       71
   10.420       80
   10.435       85
   10.450       84
   10.465       67
   10.480       60
   10.495       55
   10.510       59
   10.525       57
   10.540       46
   10.555       53
   10.570       58
   10.585       58
   10.600       54
   10.615       63
   10.630       66
   10.645       63
   10.660       65
   10.675       59
   10.690       73
   10.705       70
   10.720       68
   10.735       81
   10.750       81
   10.765       89
   10.780       92
   10.795      107
   10.810      142
   10.825      146
   10.840      122
   10.855       86
   10.870       69
   10.885       66
   10.900       50
   10.915       57
   10.930       50
   10.945       52
   10.960       51
   10.975       39
   10.990       39
   11.005       43
   11.020       47
   11.035       58
   11.050       64
   11.065       72
   11.080       65
   11.095       64
   11.110       71
   11.125       75
   11.140       74
   11.155       73
   11.170       92
   11.185      113
   11.200      112
   11.215       99
   11.230       76
   11.245       80
   11.260       63
   11.275       62
   11.290       62
   11.305       60
   11.320       46
   11.335       47
   11.350       50
   11.365       68
   11.380       71
   11.395       64
   11.410       74
   11.425       75
   11.440       48
   11.455       62
   11.470       58
   11.485       56
   11.500       62
   11.515       71
   11.530       56
   11.545       42
   11.560       41
   11.575       55
   11.590       52
   11.605       54
   11.620       48
   11.635       42
   11.650       46
   11.665       51
   11.680       48
   11.695       56
   11.710       60
   11.725       61
   11.740       49
   11.755       51
   11.770       63
   11.785       54
   11.800       55
   11.815       60
   11.830       80
   11.845       87
   11.860       77
   11.875       73
   11.890       61
   11.905       58
   11.920       52
   11.935       74
   11.950       66
   11.965       65
   11.980       54
   11.995       48
   12.010       68
   12.025       74
   12.040       61
   12.055       57
   12.070       64
   12.085       57
   12.100       62
   12.115       48
   12.130       49
   12.145       49
   12.160       47
   12.175       48
   12.190       49
   12.205       61
   12.220       53
   12.235       59
   12.250       62
   12.265       50
   12.280       50
   12.295       53
   12.310       54
   12.325       45
   12.340       49
   12.355       61
   12.370       54
   12.385       47
   12.400       58
   12.415       62
   12.430       68
   12.445       76
   12.460       83
   12.475      115
   12.490      110
   12.505      130
   12.520      128
   12.535      141
   12.550      176
   12.565      202
   12.580      234
   12.595      305
   12.610      358
   12.625      443
   12.640      425
   12.655      375
   12.670      301
   12.685      250
   12.700      310
   12.715      333
   12.730      298
   12.745      225
   12.760      153
   12.775      112
   12.790       74
   12.805       66
   12.820       73
   12.835       62
   12.850       64
   12.865       65
   12.880       63
   12.895       69
   12.910       77
   12.925      106
   12.940      119
   12.955      118
   12.970      136
   12.985      150
   13.000      202
   13.015      232
   13.030      230
   13.045      197
   13.060      166
   13.075      141
   13.090      149
   13.105      188
   13.120      200
   13.135      256
   13.150      287
   13.165      375
   13.180      504
   13.195      649
   13.210      650
   13.225      547
   13.240      500
   13.255      452
   13.270      502
   13.285      660
   13.300      874
   13.315     1106
   13.330     1035
   13.345      753
   13.360      485
   13.375      233
   13.390      139
   13.405      132
   13.420      133
   13.435      118
   13.450      110
   13.465      149
   13.480      157
   13.495      169
   13.510      210
   13.525      220
   13.540      295
   13.555      305
   13.570      296
   13.585      291
   13.600      292
   13.615      211
   13.630      154
   13.645      110
   13.660       88
   13.675       72
   13.690       68
   13.705       66
   13.720       74
   13.735       74
   13.750       79
   13.765       89
   13.780       82
   13.795      102
   13.810       99
   13.825      107
   13.840      115
   13.855       84
   13.870       80
   13.885       60
   13.900       64
   13.915       64
   13.930       68
   13.945       63
   13.960       54
   13.975       60
   13.990       63
   14.005       63
   14.020       64
   14.035       67
   14.050       64
   14.065       71
   14.080       60
   14.095       70
   14.110       73
   14.125       65
   14.140       61
   14.155       83
   14.170       82
   14.185       89
   14.200      101
   14.215      100
   14.230      107
   14.245      109
   14.260      132
   14.275      169
   14.290      185
   14.305      163
   14.320      156
   14.335      144
   14.350      140
   14.365      161
   14.380      177
   14.395      164
   14.410      149
   14.425      152
   14.440      177
   14.455      207
   14.470      249
   14.485      303
   14.500      262
   14.515      214
   14.530      150
   14.545       97
   14.560       80
   14.575       73
   14.590       63
   14.605       58
   14.620       65
   14.635       71
   14.650       60
   14.665       67
   14.680       64
   14.695       57
   14.710       58
   14.725       53
   14.740       73
   14.755       73
   14.770       57
   14.785       63
   14.800       63
   14.815       62
   14.830       69
   14.845       69
   14.860       78
   14.875       91
   14.890      115
   14.905      116
   14.920      126
   14.935      175
   14.950      184
   14.965      209
   14.980      275
   14.995      305
   15.010      317
   15.025      383
   15.040      454
   15.055      572
   15.070      718
   15.085      740
   15.100      650
   15.115      433
   15.130      259
   15.145      153
   15.160      108
   15.175      108
   15.190      110
   15.205      135
   15.220      132
   15.235      145
   15.250      169
   15.265      190
   15.280      214
   15.295      242
   15.310      232
   15.325      224
   15.340      191
   15.355      167
   15.370      172
   15.385      147
   15.400      129
   15.415      102
   15.430       91
   15.445      100
   15.460       98
   15.475      107
   15.490      112
   15.505      131
   15.520      135
   15.535      178
   15.550      206
   15.565      249
   15.580      276
   15.595      294
   15.610      230
   15.625      153
   15.640      115
   15.655      114
   15.670      111
   15.685      129
   15.700      142
   15.715      169
   15.730      160
   15.745      209
   15.760      256
   15.775      250
   15.790      240
   15.805      175
   15.820      134
   15.835       90
   15.850       85
   15.865       77
   15.880       69
   15.895       76
   15.910       65
   15.925       71
   15.940       85
   15.955       89
   15.970      102
   15.985       90
   16.000      106
   16.015      131
   16.030      155
   16.045      176
   16.060      204
   16.075      213
   16.090      253
   16.105      312
   16.120      344
   16.135      292
   16.150      215
   16.165      138
   16.180      111
   16.195       99
   16.210       89
   16.225       95
   16.240      111
   16.255      124
   16.270      156
   16.285      167
   16.300      181
   16.315      180
   16.330      178
   16.345      206
   16.360      205
   16.375      243
   16.390      358
   16.405      420
   16.420      452
   16.435      406
   16.450      320
   16.465      242
   16.480      212
   16.495      203
   16.510      235
   16.525      293
   16.540      297
   16.555      310
   16.570      266
   16.585      213
   16.600      185
   16.615      164
   16.630      190
   16.645      226
   16.660      260
   16.675      335
   16.690      337
   16.705      291
   16.720      257
   16.735      263
   16.750      255
   16.765      263
   16.780      284
   16.795      305
   16.810      239
   16.825      186
   16.840      147
   16.855      110
   16.870       98
   16.885       82
   16.900       90
   16.915      108
   16.930      112
   16.945      107
   16.960      131
   16.975      155
   16.990      157
   17.005      177
   17.020      188
   17.035      167
   17.050      153
   17.065      120
   17.080      111
   17.095      104
   17.110      121
   17.125      134
   17.140      168
   17.155      184
   17.170      201
   17.185      238
   17.200      265
   17.215      269
   17.230      234
   17.245      198
   17.260      159
   17.275      139
   17.290      127
   17.305      125
   17.320      112
   17.335      112
   17.350      116
   17.365      108
   17.380      119
   17.395      134
   17.410      136
   17.425      159
   17.440      190
   17.455      215
   17.470      212
   17.485      188
   17.500      146
   17.515      115
   17.530       98
   17.545       82
   17.560       84
   17.575       91
   17.590       92
   17.605      109
   17.620      104
   17.635      118
   17.650      120
   17.665      105
   17.680      104
   17.695       98
   17.710       95
   17.725      125
   17.740      125
   17.755      122
   17.770      113
   17.785       79
   17.800       93
   17.815       96
   17.830       92
   17.845       85
   17.860       77
   17.875       87
   17.890       74
   17.905       61
   17.920       67
   17.935       64
   17.950       45
   17.965       53
   17.980       68
   17.995       72
   18.010       71
   18.025       75
   18.040       74
   18.055       81
   18.070       66
   18.085       66
   18.100       63
   18.115       80
   18.130       67
   18.145       72
   18.160       92
   18.175       99
   18.190      116
   18.205      135
   18.220      142
   18.235      164
   18.250      169
   18.265      172
   18.280      169
   18.295      159
   18.310      138
   18.325      115
   18.340       87
   18.355       64
   18.370       80
   18.385       81
   18.400       79
   18.415       85
   18.430       83
   18.445       79
   18.460       81
   18.475      103
   18.490       95
   18.505      113
   18.520      119
   18.535      174
   18.550      168
   18.565      161
   18.580      138
   18.595      115
   18.610      133
   18.625      157
   18.640      187
   18.655      195
   18.670      184
   18.685      170
   18.700      148
   18.715      134
   18.730      118
   18.745       98
   18.760       95
   18.775       90
   18.790       87
   18.805       95
   18.820       97
   18.835      113
   18.850      133
   18.865      161
   18.880      156
   18.895      130
   18.910      102
   18.925      106
   18.940      114
   18.955      112
   18.970       81
   18.985       93
   19.000       90
   19.015       78
   19.030       75
   19.045       77
   19.060       87
   19.075       82
   19.090       79
   19.105       69
   19.120       69
   19.135       57
   19.150       56
   19.165       54
   19.180       68
   19.195       63
   19.210       65
   19.225       78
   19.240       68
   19.255       68
   19.270       85
   19.285       72
   19.300       62
   19.315       71
   19.330       64
   19.345       73
   19.360       55
   19.375       44
   19.390       62
   19.405       63
   19.420       58
   19.435       66
   19.450       64
   19.465       75
   19.480       80
   19.495       78
   19.510       74
   19.525       85
   19.540      106
   19.555      128
   19.570      133
   19.585      149
   19.600      155
   19.615      156
   19.630      132
   19.645      122
   19.660      104
   19.675       96
   19.690       79
   19.705       75
   19.720       77
   19.735       89
   19.750      102
   19.765      116
   19.780      134
   19.795      153
   19.810      207
   19.825      257
   19.840      307
   19.855      364
   19.870      402
   19.885      382
   19.900      311
   19.915      232
   19.930      207
   19.945      183
   19.960      222
   19.975      240
   19.990      232
   20.005      231
   20.020      222
   20.035      212
   20.050      173
   20.065      164
   20.080      113
   20.095      102
   20.110       96
   20.125       91
   20.140       83
   20.155       88
   20.170       97
   20.185      118
   20.200      119
   20.215      106
   20.230      104
   20.245       88
   20.260       72
   20.275       77
   20.290       73
   20.305       63
   20.320       72
   20.335       79
   20.350       67
   20.365       56
   20.380       57
   20.395       62
   20.410       70
   20.425       72
   20.440       74
   20.455       60
   20.470       60
   20.485       67
   20.500       76
   20.515       74
   20.530       76
   20.545       87
   20.560       88
   20.575       80
   20.590       77
   20.605       71
   20.620       93
   20.635       77
   20.650       68
   20.665       78
   20.680       86
   20.695      109
   20.710       98
   20.725      126
   20.740      153
   20.755      171
   20.770      166
   20.785      153
   20.800      143
   20.815      153
   20.830      182
   20.845      167
   20.860      153
   20.875      125
   20.890      105
   20.905       71
   20.920       71
   20.935       75
   20.950       68
   20.965       81
   20.980       79
   20.995       72
   21.010       76
   21.025       73
   21.040       71
   21.055       76
   21.070       74
   21.085       64
   21.100       65
   21.115       73
   21.130       69
   21.145       76
   21.160       80
   21.175       85
   21.190       86
   21.205       98
   21.220       99
   21.235       93
   21.250       86
   21.265       79
   21.280       57
   21.295       58
   21.310       63
   21.325       65
   21.340       70
   21.355       48
   21.370       56
   21.385       69
   21.400       57
   21.415       55
   21.430       69
   21.445       68
   21.460       90
   21.475       93
   21.490       95
   21.505      107
   21.520      145
   21.535      162
   21.550      202
   21.565      205
   21.580      177
   21.595      168
   21.610      157
   21.625      134
   21.640      131
   21.655      140
   21.670      154
   21.685      179
   21.700      211
   21.715      268
   21.730      384
   21.745      485
   21.760      501
   21.775      452
   21.790      392
   21.805      267
   21.820      193
   21.835      161
   21.850      163
   21.865      130
   21.880      128
   21.895      107
   21.910      114
   21.925       85
   21.940       77
   21.955       82
   21.970       59
   21.985       66
   22.000       69
   22.015       61
   22.030       67
   22.045       78
   22.060       59
   22.075       73
   22.090       60
   22.105       66
   22.120       62
   22.135       76
   22.150       77
   22.165       59
   22.180       79
   22.195       74
   22.210       76
   22.225       86
   22.240       79
   22.255       87
   22.270       94
   22.285       83
   22.300       87
   22.315       79
   22.330       94
   22.345      108
   22.360      113
   22.375      108
   22.390      101
   22.405      102
   22.420       98
   22.435       77
   22.450       75
   22.465       79
   22.480       86
   22.495       92
   22.510       96
   22.525      122
   22.540      131
   22.555      158
   22.570      171
   22.585      181
   22.600      176
   22.615      157
   22.630      116
   22.645      106
   22.660       88
   22.675       95
   22.690      104
   22.705      119
   22.720      121
   22.735      140
   22.750      177
   22.765      186
   22.780      197
   22.795      217
   22.810      199
   22.825      197
   22.840      183
   22.855      166
   22.870      137
   22.885      132
   22.900      117
   22.915       91
   22.930       95
   22.945       98
   22.960       79
   22.975       91
   22.990       87
   23.005       97
   23.020      101
   23.035       99
   23.050      103
   23.065      101
   23.080       93
   23.095       87
   23.110       93
   23.125      100
   23.140      130
   23.155      136
   23.170      120
   23.185       95
   23.200       86
   23.215       86
   23.230       80
   23.245       70
   23.260       67
   23.275       58
   23.290       66
   23.305       68
   23.320       77
   23.335       69
   23.350       66
   23.365       78
   23.380       82
   23.395       69
   23.410       57
   23.425       68
   23.440       58
   23.455       51
   23.470       59
   23.485       63
   23.500       55
   23.515       61
   23.530       65
   23.545       63
   23.560       69
   23.575       65
   23.590       67
   23.605       77
   23.620       73
   23.635       69
   23.650       57
   23.665       63
   23.680       72
   23.695       68
   23.710       60
   23.725       57
   23.740       61
   23.755       65
   23.770       77
   23.785       73
   23.800       64
   23.815       66
   23.830       65
   23.845       56
   23.860       60
   23.875       72
   23.890       84
   23.905       86
   23.920       87
   23.935      104
   23.950      108
   23.965      114
   23.980      105
   23.995       89
   24.010       78
   24.025       60
   24.040       60
   24.055       68
   24.070       66
   24.085       63
   24.100       58
   24.115       72
   24.130       70
   24.145       73
   24.160       88
   24.175       99
   24.190      111
   24.205      121
   24.220      103
   24.235       92
   24.250       91
   24.265       78
   24.280       89
   24.295       80
   24.310       79
   24.325       57
   24.340       61
   24.355       63
   24.370       63
   24.385       70
   24.400       84
   24.415       77
   24.430       82
   24.445       64
   24.460       65
   24.475       76
   24.490       85
   24.505       94
   24.520       92
   24.535       92
   24.550       90
   24.565       99
   24.580      101
   24.595      107
   24.610       98
   24.625       85
   24.640       74
   24.655       69
   24.670       82
   24.685       81
   24.700       78
   24.715       74
   24.730       74
   24.745       59
   24.760       69
   24.775       77
   24.790       65
   24.805       66
   24.820       66
   24.835       81
   24.850       72
   24.865       85
   24.880       88
   24.895      100
   24.910       92
   24.925      113
   24.940      102
   24.955       98
   24.970       98
   24.985       86
   25.000       70
   25.015       83
   25.030       73
   25.045       72
   25.060       81
   25.075       95
   25.090       72
   25.105       84
   25.120       92
   25.135       94
   25.150      106
   25.165       97
   25.180       79
   25.195       70
   25.210       59
   25.225       73
   25.240       76
   25.255       70
   25.270       61
   25.285       71
   25.300       74
   25.315       93
   25.330      105
   25.345      107
   25.360      132
   25.375      107
   25.390       97
   25.405      100
   25.420       98
   25.435      101
   25.450       89
   25.465       85
   25.480       86
   25.495       98
   25.510       84
   25.525       87
   25.540      101
   25.555      117
   25.570      142
   25.585      156
   25.600      178
   25.615      188
   25.630      181
   25.645      155
   25.660      147
   25.675      114
   25.690       95
   25.705       82
   25.720       79
   25.735       95
   25.750      100
   25.765       97
   25.780      101
   25.795      105
   25.810      126
   25.825      134
   25.840      143
   25.855      116
   25.870       94
   25.885       94
   25.900       81
   25.915       83
   25.930       83
   25.945       84
   25.960       81
   25.975       81
   25.990       87
   26.005       96
   26.020       97
   26.035       98
   26.050       90
   26.065       98
   26.080      108
   26.095      115
   26.110      109
   26.125       93
   26.140       94
   26.155       84
   26.170       78
   26.185       68
   26.200       80
   26.215       76
   26.230       78
   26.245       78
   26.260       66
   26.275       71
   26.290       79
   26.305       77
   26.320       74
   26.335       71
   26.350       66
   26.365       68
   26.380       61
   26.395       64
   26.410       63
   26.425       58
   26.440       69
   26.455       77
   26.470       67
   26.485       66
   26.500       62
   26.515       66
   26.530       67
   26.545       79
   26.560      102
   26.575      108
   26.590       98
   26.605       97
   26.620       88
   26.635       96
   26.650       72
   26.665       75
   26.680       73
   26.695       70
   26.710       68
   26.725       73
   26.740       76
   26.755       78
   26.770       78
   26.785       81
   26.800      115
   26.815      123
   26.830      117
   26.845      134
   26.860      140
   26.875      137
   26.890      143
   26.905      143
   26.920      147
   26.935      153
   26.950      125
   26.965      107
   26.980       96
   26.995       90
   27.010       72
   27.025       71
   27.040       66
   27.055       62
   27.070       85
   27.085       77
   27.100       76
   27.115       65
   27.130       80
   27.145       71
   27.160       78
   27.175       95
   27.190       82
   27.205       69
   27.220       82
   27.235       77
   27.250       83
   27.265       79
   27.280       73
   27.295       78
   27.310       88
   27.325       73
   27.340       80
   27.355       88
   27.370       95
   27.385       98
   27.400       92
   27.415      103
   27.430      106
   27.445      128
   27.460      126
   27.475      107
   27.490      127
   27.505      120
   27.520      136
   27.535      146
   27.550      149
   27.565      148
   27.580      150
   27.595      166
   27.610      135
   27.625      128
   27.640      109
   27.655      107
   27.670      112
   27.685       92
   27.700       78
   27.715       78
   27.730       85
   27.745       74
   27.760       75
   27.775      104
   27.790      101
   27.805      100
   27.820      111
   27.835      110
   27.850      109
   27.865      100
   27.880       97
   27.895      100
   27.910       87
   27.925       74
   27.940       75
   27.955       63
   27.970       75
   27.985       81
   28.000       73
   28.015       72
   28.030       75
   28.045       90
   28.060       95
   28.075       81
   28.090       99
   28.105       80
   28.120       78
   28.135       77
   28.150       91
   28.165       81
   28.180       89
   28.195       79
   28.210       72
   28.225       78
   28.240       96
   28.255       93
   28.270       81
   28.285       84
   28.300      100
   28.315       98
   28.330      109
   28.345       95
   28.360      107
   28.375       93
   28.390       73
   28.405       79
   28.420       71
   28.435       81
   28.450       68
   28.465       78
   28.480       61
   28.495       65
   28.510       64
   28.525       68
   28.540       96
   28.555       68
   28.570       73
   28.585       74
   28.600       75
   28.615       82
   28.630       86
   28.645      103
   28.660       76
   28.675       75
   28.690       60
   28.705       77
   28.720       83
   28.735       66
   28.750       71
   28.765       71
   28.780       86
   28.795       88
   28.810       97
   28.825      103
   28.840      102
   28.855      105
   28.870      102
   28.885      102
   28.900       97
   28.915      104
   28.930       99
   28.945       92
   28.960       93
   28.975       96
   28.990       89
   29.005       79
   29.020       86
   29.035       84
   29.050       98
   29.065       95
   29.080       90
   29.095       88
   29.110      101
   29.125       91
   29.140       88
   29.155       96
   29.170       90
   29.185       85
   29.200       88
   29.215       82
   29.230       82
   29.245       82
   29.260       73
   29.275       65
   29.290       65
   29.305       75
   29.320       69
   29.335       79
   29.350       66
   29.365       62
   29.380       68
   29.395       71
   29.410       81
   29.425       78
   29.440       81
   29.455       81
   29.470       77
   29.485       81
   29.500       81
   29.515       94
   29.530       78
   29.545       75
   29.560       95
   29.575      107
   29.590      110
   29.605      109
   29.620      123
   29.635      108
   29.650       95
   29.665       93
   29.680       86
   29.695      103
   29.710       83
   29.725       82
   29.740       68
   29.755       83
   29.770       76
   29.785       80
   29.800      102
   29.815       76
   29.830       83
   29.845       80
   29.860       74
   29.875       67
   29.890       85
   29.905       69
   29.920       69
   29.935       64
   29.950       71
   29.965       68
   29.980       73
   29.995       65
   30.010       63
   30.025       58
   30.040       68
   30.055       66
   30.070       78
   30.085       76
   30.100       61
   30.115       64
   30.130       73
   30.145       79
   30.160       77
   30.175       70
   30.190       79
   30.205       74
   30.220       61
   30.235       63
   30.250       73
   30.265       67
   30.280       61
   30.295       73
   30.310       76
   30.325       71
   30.340       78
   30.355       81
   30.370       86
   30.385       83
   30.400       71
   30.415       79
   30.430       69
   30.445       73
   30.460       78
   30.475       81
   30.490       70
   30.505       93
   30.520      101
   30.535      121
   30.550       91
   30.565       84
   30.580       90
   30.595       75
   30.610       80
   30.625       78
   30.640       81
   30.655       69
   30.670       80
   30.685       55
   30.700       66
   30.715       78
   30.730       73
   30.745       68
   30.760       60
   30.775       63
   30.790       81
   30.805       85
   30.820       86
   30.835       98
   30.850       87
   30.865       86
   30.880      100
   30.895       97
   30.910      107
   30.925      101
   30.940       94
   30.955       89
   30.970       99
   30.985       86
   31.000       82
   31.015       83
   31.030       61
   31.045       77
   31.060       66
   31.075       83
   31.090       75
   31.105       77
   31.120       73
   31.135       77
   31.150       77
   31.165       78
   31.180       70
   31.195       68
   31.210       65
   31.225       72
   31.240       66
   31.255       78
   31.270       85
   31.285       92
   31.300       77
   31.315       74
   31.330       90
   31.345       82
   31.360       95
   31.375       93
   31.390       73
   31.405       76
   31.420       78
   31.435       94
   31.450       85
   31.465       95
   31.480       90
   31.495       99
   31.510      102
   31.525       97
   31.540       92
   31.555       69
   31.570       76
   31.585       66
   31.600       77
   31.615       90
   31.630       89
   31.645       97
   31.660       94
   31.675       97
   31.690      101
   31.705       94
   31.720       95
   31.735       86
   31.750       93
   31.765       98
   31.780       84
   31.795       86
   31.810       99
   31.825       86
   31.840       92
   31.855       89
   31.870       99
   31.885      100
   31.900       92
   31.915       90
   31.930       93
   31.945       74
   31.960       77
   31.975       79
   31.990       77
   32.005       84
   32.020       80
   32.035       80
   32.050       76
   32.065       80
   32.080       82
   32.095       78
   32.110       72
   32.125       66
   32.140       67
   32.155       75
   32.170       70
   32.185       73
   32.200       64
   32.215       68
   32.230       77
   32.245       80
   32.260       74
   32.275       77
   32.290       76
   32.305       62
   32.320       75
   32.335       66
   32.350       89
   32.365       82
   32.380       78
   32.395       77
   32.410       64
   32.425       63
   32.440       72
   32.455       71
   32.470       72
   32.485       70
   32.500       64
   32.515       70
   32.530       67
   32.545       49
   32.560       59
   32.575       69
   32.590       68
   32.605       75
   32.620       65
   32.635       64
   32.650       72
   32.665       79
   32.680       64
   32.695       68
   32.710       58
   32.725       70
   32.740       72
   32.755       70
   32.770       64
   32.785       64
   32.800       84
   32.815       78
   32.830       73
   32.845       91
   32.860       89
   32.875       88
   32.890       97
   32.905       96
   32.920       98
   32.935      103
   32.950       93
   32.965       73
   32.980       82
   32.995       74
   33.010       70
   33.025       82
   33.040       74
   33.055       68
   33.070       77
   33.085       71
   33.100       78
   33.115       82
   33.130       74
   33.145       63
   33.160       71
   33.175       60
   33.190       82
   33.205       84
   33.220       72
   33.235       68
   33.250       77
   33.265       74
   33.280       84
   33.295       77
   33.310       78
   33.325       91
   33.340       75
   33.355       90
   33.370      107
   33.385       96
   33.400       99
   33.415      114
   33.430       96
   33.445       82
   33.460       84
   33.475       95
   33.490       85
   33.505       90
   33.520       90
   33.535       87
   33.550       83
   33.565       72
   33.580       87
   33.595       83
   33.610       85
   33.625       80
   33.640       79
   33.655       87
   33.670       88
   33.685       77
   33.700       93
   33.715       98
   33.730      115
   33.745      104
   33.760       93
   33.775      100
   33.790      101
   33.805       97
   33.820       79
   33.835       83
   33.850       82
   33.865       68
   33.880       89
   33.895       96
   33.910       84
   33.925      101
   33.940       75
   33.955       85
   33.970       89
   33.985      108
   34.000       80
   34.015       72
   34.030       82
   34.045       84
   34.060       70
   34.075       64
   34.090       78
   34.105       70
   34.120       71
   34.135       76
   34.150       65
   34.165       71
   34.180       63
   34.195       62
   34.210       73
   34.225       79
   34.240       57
   34.255       59
   34.270       64
   34.285       64
   34.300       66
   34.315       78
   34.330       62
   34.345       84
   34.360       72
   34.375       72
   34.390       80
   34.405       87
   34.420       82
   34.435       79
   34.450       73
   34.465       75
   34.480       74
   34.495       69
   34.510       84
   34.525       85
   34.540       79
   34.555       75
   34.570       63
   34.585       58
   34.600       64
   34.615       58
   34.630       63
   34.645       69
   34.660       77
   34.675       83
   34.690       72
   34.705       70
   34.720       77
   34.735       82
   34.750       54
   34.765       67
   34.780       66
   34.795       65
   34.810       70
   34.825       68
   34.840       63
   34.855       63
   34.870       70
   34.885       89
   34.900       77
   34.915       78
   34.930       70
   34.945       70
   34.960       74
   34.975       76
   34.990       72
   35.005       64
   35.020       63
   35.035       73
   35.050       74
   35.065       63
   35.080       72
   35.095       70
   35.110       80
   35.125       91
   35.140       99
   35.155       88
   35.170       88
   35.185       89
   35.200       87
   35.215       81
   35.230       80
   35.245       93
   35.260       88
   35.275       93
   35.290      100
   35.305       97
   35.320       88
   35.335       95
   35.350      106
   35.365      115
   35.380      115
   35.395       99
   35.410       92
   35.425      103
   35.440       86
   35.455       90
   35.470      103
   35.485      116
   35.500      107
   35.515      111
   35.530      103
   35.545       89
   35.560      110
   35.575      106
   35.590      100
   35.605       85
   35.620       93
   35.635       83
   35.650       74
   35.665       73
   35.680       69
   35.695       70
   35.710       69
   35.725       63
   35.740       64
   35.755       63
   35.770       63
   35.785       63
   35.800       62
   35.815       61
   35.830       81
   35.845       75
   35.860       83
   35.875       73
   35.890       74
   35.905       70
   35.920       61
   35.935       56
   35.950       72
   35.965       69
   35.980       66
   35.995       55
   36.010       69
   36.025       81
   36.040       73
   36.055       73
   36.070       72
   36.085       72
   36.100       81
   36.115       73
   36.130       65
   36.145       74
   36.160       78
   36.175       78
   36.190       80
   36.205       70
   36.220       81
   36.235       75
   36.250       62
   36.265       77
   36.280       79
   36.295       77
   36.310       65
   36.325       65
   36.340       60
   36.355       72
   36.370       64
   36.385       68
   36.400       54
   36.415       70
   36.430       75
   36.445       64
   36.460       59
   36.475       70
   36.490       76
   36.505       63
   36.520       85
   36.535       68
   36.550       60
   36.565       76
   36.580       74
   36.595       82
   36.610       70
   36.625       63
   36.640       78
   36.655       78
   36.670       67
   36.685       73
   36.700       68
   36.715       75
   36.730       79
   36.745       80
   36.760       67
   36.775       69
   36.790       75
   36.805       70
   36.820       71
   36.835       74
   36.850       69
   36.865       75
   36.880       71
   36.895       74
   36.910      100
   36.925       70
   36.940       60
   36.955       65
   36.970       75
   36.985       79
   37.000       67
   37.015       82
   37.030       84
   37.045       79
   37.060       68
   37.075       67
   37.090       77
   37.105       74
   37.120       71
   37.135       71
   37.150       87
   37.165       65
   37.180       81
   37.195       83
   37.210       88
   37.225       75
   37.240       71
   37.255       71
   37.270       74
   37.285       59
   37.300       65
   37.315       63
   37.330       71
   37.345       71
   37.360       58
   37.375       73
   37.390       74
   37.405       56
   37.420       60
   37.435       63
   37.450       65
   37.465       66
   37.480       61
   37.495       69
   37.510       60
   37.525       62
   37.540       65
   37.555       53
   37.570       62
   37.585       66
   37.600       75
   37.615       47
   37.630       59
   37.645       58
   37.660       66
   37.675       57
   37.690       66
   37.705       69
   37.720       71
   37.735       68
   37.750       65
   37.765       75
   37.780       83
   37.795       81
   37.810       72
   37.825       70
   37.840       63
   37.855       60
   37.870       69
   37.885       72
   37.900       74
   37.915       77
   37.930       60
   37.945       60
   37.960       78
   37.975       76
   37.990       67
   38.005       68
   38.020       54
   38.035       52
   38.050       61
   38.065       68
   38.080       70
   38.095       81
   38.110       63
   38.125       59
   38.140       63
   38.155       70
   38.170       67
   38.185       63
   38.200       53
   38.215       61
   38.230       55
   38.245       69
   38.260       90
   38.275       87
   38.290       90
   38.305       81
   38.320       82
   38.335       77
   38.350       73
   38.365       58
   38.380       66
   38.395       64
   38.410       68
   38.425       76
   38.440       70
   38.455       63
   38.470       63
   38.485       64
   38.500       59
   38.515       62
   38.530       84
   38.545       72
   38.560       78
   38.575       69
   38.590       70
   38.605       61
   38.620       72
   38.635       71
   38.650       69
   38.665       62
   38.680       76
   38.695       61
   38.710       61
   38.725       72
   38.740       71
   38.755       75
   38.770       75
   38.785       66
   38.800       69
   38.815       68
   38.830       81
   38.845       68
   38.860       75
   38.875       63
   38.890       60
   38.905       68
   38.920       64
   38.935       59
   38.950       48
   38.965       51
   38.980       56
   38.995       61
   39.010       64
   39.025       67
   39.040       80
   39.055       59
   39.070       56
   39.085       63
   39.100       64
   39.115       65
   39.130       63
   39.145       63
   39.160       60
   39.175       55
   39.190       61
   39.205       73
   39.220       70
   39.235       45
   39.250       53
   39.265       62
   39.280       58
   39.295       50
   39.310       49
   39.325       65
   39.340       61
   39.355       54
   39.370       48
   39.385       53
   39.400       65
   39.415       61
   39.430       58
   39.445       65
   39.460       54
   39.475       69
   39.490       60
   39.505       57
   39.520       61
   39.535       54
   39.550       52
   39.565       68
   39.580       56
   39.595       55
   39.610       71
   39.625       67
   39.640       62
   39.655       61
   39.670       68
   39.685       73
   39.700       67
   39.715       64
   39.730       65
   39.745       64
   39.760       57
   39.775       61
   39.790       71
   39.805       75
   39.820       71
   39.835       61
   39.850       69
   39.865       69
   39.880       57
   39.895       61
   39.910       63
   39.925       52
   39.940       63
   39.955       53
   39.970       49
   39.985       49
   40.000       53
   40.015       63
   40.030       57
   40.045       61
   40.060       67
   40.075       61
   40.090       52
   40.105       55
   40.120       65
   40.135       57
   40.150       63
   40.165       52
   40.180       58
   40.195       66
   40.210       55
   40.225       55
   40.240       66
   40.255       78
   40.270       69
   40.285       65
   40.300       74
   40.315       68
   40.330       58
   40.345       61
   40.360       65
   40.375       63
   40.390       56
   40.405       65
   40.420       67
   40.435       73
   40.450       60
   40.465       66
   40.480       62
   40.495       68
   40.510       60
   40.525       49
   40.540       54
   40.555       62
   40.570       67
   40.585       64
   40.600       56
   40.615       61
   40.630       68
   40.645       72
   40.660       62
   40.675       59
   40.690       71
   40.705       65
   40.720       63
   40.735       73
   40.750       79
   40.765       75
   40.780       68
   40.795       72
   40.810       47
   40.825       60
   40.840       60
   40.855       60
   40.870       61
   40.885       62
   40.900       65
   40.915       69
   40.930       62
   40.945       62
   40.960       60
   40.975       50
   40.990       53
   41.005       65
   41.020       61
   41.035       52
   41.050       53
   41.065       58
   41.080       66
   41.095       65
   41.110       57
   41.125       63
   41.140       66
   41.155       62
   41.170       65
   41.185       60
   41.200       53
   41.215       53
   41.230       60
   41.245       60
   41.260       52
   41.275       57
   41.290       58
   41.305       42
   41.320       66
   41.335       59
   41.350       54
   41.365       61
   41.380       59
   41.395       63
   41.410       63
   41.425       71
   41.440       71
   41.455       55
   41.470       62
   41.485       72
   41.500       70
   41.515       61
   41.530       53
   41.545       54
   41.560       67
   41.575       61
   41.590       58
   41.605       71
   41.620       60
   41.635       72
   41.650       64
   41.665       58
   41.680       65
   41.695       71
   41.710       53
   41.725       64
   41.740       59
   41.755       52
   41.770       64
   41.785       55
   41.800       70
   41.815       70
   41.830       65
   41.845       57
   41.860       61
   41.875       59
   41.890       65
   41.905       47
   41.920       69
   41.935       69
   41.950       60
   41.965       63
   41.980       66
   41.995       64
   42.010       74
   42.025       66
   42.040       59
   42.055       60
   42.070       53
   42.085       58
   42.100       48
   42.115       49
   42.130       65
   42.145       62
   42.160       52
   42.175       58
   42.190       63
   42.205       65
   42.220       71
   42.235       72
   42.250       65
   42.265       63
   42.280       60
   42.295       59
   42.310       62
   42.325       66
   42.340       57
   42.355       74
   42.370       71
   42.385       59
   42.400       60
   42.415       65
   42.430       46
   42.445       45
   42.460       50
   42.475       61
   42.490       56
   42.505       48
   42.520       53
   42.535       58
   42.550       55
   42.565       51
   42.580       49
   42.595       58
   42.610       48
   42.625       57
   42.640       64
   42.655       65
   42.670       67
   42.685       62
   42.700       60
   42.715       53
   42.730       55
   42.745       66
   42.760       74
   42.775       50
   42.790       63
   42.805       61
   42.820       61
   42.835       53
   42.850       53
   42.865       59
   42.880       68
   42.895       52
   42.910       61
   42.925       53
   42.940       61
   42.955       52
   42.970       61
   42.985       56
   43.000       59
   43.015       56
   43.030       63
   43.045       65
   43.060       65
   43.075       63
   43.090       62
   43.105       53
   43.120       54
   43.135       64
   43.150       63
   43.165       67
   43.180       63
   43.195       61
   43.210       52
   43.225       56
   43.240       51
   43.255       73
   43.270       55
   43.285       61
   43.300       48
   43.315       59
   43.330       52
   43.345       47
   43.360       57
   43.375       58
   43.390       60
   43.405       52
   43.420       58
   43.435       51
   43.450       51
   43.465       46
   43.480       53
   43.495       58
   43.510       55
   43.525       58
   43.540       60
   43.555       58
   43.570       58
   43.585       55
   43.600       58
   43.615       61
   43.630       58
   43.645       55
   43.660       55
   43.675       53
   43.690       50
   43.705       60
   43.720       57
   43.735       55
   43.750       66
   43.765       53
   43.780       54
   43.795       65
   43.810       73
   43.825       59
   43.840       52
   43.855       64
   43.870       63
   43.885       61
   43.900       69
   43.915       57
   43.930       55
   43.945       56
   43.960       67
   43.975       67
   43.990       69
   44.005       60
   44.020       60
   44.035       65
   44.050       60
   44.065       60
   44.080       62
   44.095       68
   44.110       62
   44.125       58
   44.140       58
   44.155       57
   44.170       61
   44.185       64
   44.200       60
   44.215       55
   44.230       61
   44.245       60
   44.260       65
   44.275       67
   44.290       59
   44.305       59
   44.320       58
   44.335       65
   44.350       69
   44.365       66
   44.380       62
   44.395       52
   44.410       59
   44.425       57
   44.440       60
   44.455       48
   44.470       56
   44.485       61
   44.500       77
   44.515       63
   44.530       54
   44.545       61
   44.560       65
   44.575       60
   44.590       53
   44.605       61
   44.620       64
   44.635       68
   44.650       61
   44.665       70
   44.680       60
   44.695       74
   44.710       71
   44.725       60
   44.740       64
   44.755       67
   44.770       60
   44.785       43
   44.800       66
   44.815       68
   44.830       69
   44.845       60
   44.860       53
   44.875       71
   44.890       60
   44.905       73
   44.920       75
   44.935       70
   44.950       69
   44.965       67
   44.980       91
   44.995       84
   45.010       81
   45.025       70
   45.040       65
   45.055       67
   45.070       63
   45.085       67
   45.100       54
   45.115       65
   45.130       65
   45.145       61
   45.160       71
   45.175       63
   45.190       65
   45.205       79
   45.220       49
   45.235       50
   45.250       63
   45.265       59
   45.280       60
   45.295       62
   45.310       65
   45.325       60
   45.340       73
   45.355       73
   45.370       51
   45.385       57
   45.400       59
   45.415       59
   45.430       60
   45.445       63
   45.460       58
   45.475       61
   45.490       69
   45.505       60
   45.520       45
   45.535       55
   45.550       60
   45.565       52
   45.580       61
   45.595       48
   45.610       51
   45.625       47
   45.640       50
   45.655       60
   45.670       49
   45.685       52
   45.700       53
   45.715       49
   45.730       59
   45.745       60
   45.760       54
   45.775       56
   45.790       55
   45.805       61
   45.820       61
   45.835       60
   45.850       52
   45.865       56
   45.880       53
   45.895       63
   45.910       63
   45.925       55
   45.940       65
   45.955       57
   45.970       71
   45.985       58
