    4.000       72
    4.015       56
    4.030       51
    4.045       50
    4.060       49
    4.075       48
    4.090       50
    4.105       52
    4.120       54
    4.135       59
    4.150       50
    4.165       48
    4.180       49
    4.195       43
    4.210       35
    4.225       50
    4.240       50
    4.255       38
    4.270       38
    4.285       57
    4.300       52
    4.315       53
    4.330       45
    4.345       50
    4.360       50
    4.375       57
    4.390       43
    4.405       50
    4.420       53
    4.435       57
    4.450       55
    4.465       51
    4.480       43
    4.495       61
    4.510       52
    4.525       51
    4.540       51
    4.555       59
    4.570       50
    4.585       39
    4.600       48
    4.615       50
    4.630       54
    4.645       52
    4.660       48
    4.675       54
    4.690       51
    4.705       54
    4.720       52
    4.735       54
    4.750       52
    4.765       46
    4.780       50
    4.795       51
    4.810       44
    4.825       46
    4.840       46
    4.855       57
    4.870       58
    4.885       52
    4.900       50
    4.915       47
    4.930       62
    4.945       57
    4.960       49
    4.975       43
    4.990       56
    5.005       51
    5.020       50
    5.035       47
    5.050       48
    5.065       51
    5.080       52
    5.095       44
    5.110       39
    5.125       50
    5.140       49
    5.155       47
    5.170       44
    5.185       55
    5.200       48
    5.215       45
    5.230       50
    5.245       52
    5.260       56
    5.275       54
    5.290       49
    5.305       44
    5.320       41
    5.335       50
    5.350       56
    5.365       47
    5.380       53
    5.395       54
    5.410       55
    5.425       46
    5.440       37
    5.455       36
    5.470       43
    5.485       51
    5.500       42
    5.515       45
    5.530       48
    5.545       42
    5.560       55
    5.575       45
    5.590       47
    5.605       47
    5.620       46
    5.635       44
    5.650       48
    5.665       43
    5.680       53
    5.695       48
    5.710       32
    5.725       44
    5.740       41
    5.755       49
    5.770       38
    5.785       44
    5.800       46
    5.815       59
    5.830       57
    5.845       44
    5.860       49
    5.875       43
    5.890       46
    5.905       39
    5.920       39
    5.935       53
    5.950       42
    5.965       44
    5.980       44
    5.995       42
    6.010       41
    6.025       49
    6.040       57
    6.055       68
    6.070       57
    6.085       50
    6.100       43
    6.115       52
    6.130       43
    6.145       43
    6.160       52
    6.175       60
    6.190       48
    6.205       54
    6.220       56
    6.235       59
    6.250       49
    6.265       60
    6.280       70
    6.295       70
    6.310       70
    6.325       58
    6.340       60
    6.355       72
    6.370       66
    6.385       75
    6.400       68
    6.415       87
    6.430       83
    6.445       87
    6.460      100
    6.475       92
    6.490      104
    6.505      109
    6.520      139
    6.535      143
    6.550      156
    6.565      188
    6.580      204
    6.595      185
    6.610      214
    6.625      210
    6.640      186
    6.655      140
    6.670       94
    6.685       66
    6.700       53
    6.715       52
    6.730       49
    6.745       51
    6.760       63
    6.775       51
    6.790       49
    6.805       49
    6.820       56
    6.835       47
    6.850       54
    6.865       54
    6.880       49
    6.895       46
    6.910       54
    6.925       50
    6.940       48
    6.955       49
    6.970       56
    6.985       60
    7.000       54
    7.015       69
    7.030       68
    7.045       57
    7.060       61
    7.075       58
    7.090       70
    7.105       65
    7.120       85
    7.135       82
    7.150       79
    7.165       85
    7.180       71
    7.195       70
    7.210       62
    7.225       62
    7.240       46
    7.255       44
    7.270       38
    7.285       47
    7.300       45
    7.315       45
    7.330       47
    7.345       47
    7.360       55
    7.375       55
    7.390       47
    7.405       51
    7.420       51
    7.435       52
    7.450       42
    7.465       46
    7.480       52
    7.495       48
    7.510       52
    7.525       38
    7.540       56
    7.555       57
    7.570       55
    7.585       63
    7.600       53
    7.615       45
    7.630       50
    7.645       42
    7.660       53
    7.675       56
    7.690       54
    7.705       47
    7.720       54
    7.735       38
    7.750       49
    7.765       50
    7.780       46
    7.795       45
    7.810       48
    7.825       55
    7.840       48
    7.855       50
    7.870       48
    7.885       41
    7.900       41
    7.915       48
    7.930       53
    7.945       51
    7.960       40
    7.975       43
    7.990       44
    8.005       44
    8.020       44
    8.035       45
    8.050       53
    8.065       48
    8.080       39
    8.095       41
    8.110       36
    8.125       43
    8.140       52
    8.155       45
    8.170       38
    8.185       49
    8.200       43
    8.215       41
    8.230       45
    8.245       57
    8.260       44
    8.275       45
    8.290       55
    8.305       52
    8.320       37
    8.335       43
    8.350       39
    8.365       42
    8.380       55
    8.395       53
    8.410       42
    8.425       50
    8.440       45
    8.455       62
    8.470       55
    8.485       51
    8.500       47
    8.515       49
    8.530       42
    8.545       48
    8.560       54
    8.575       50
    8.590       50
    8.605       49
    8.620       42
    8.635       44
    8.650       43
    8.665       41
    8.680       45
    8.695       53
    8.710       56
    8.725       50
    8.740       41
    8.755       32
    8.770       51
    8.785       49
    8.800       59
    8.815       52
    8.830       44
    8.845       45
    8.860       46
    8.875       47
    8.890       39
    8.905       59
    8.920       41
    8.935       33
    8.950       48
    8.965       55
    8.980       42
    8.995       65
    9.010       52
    9.025       58
    9.040       47
    9.055       38
    9.070       48
    9.085       57
    9.100       54
    9.115       61
    9.130       50
    9.145       47
    9.160       40
    9.175       33
    9.190       44
    9.205       44
    9.220       51
    9.235       47
    9.250       44
    9.265       55
    9.280       53
    9.295       50
    9.310       49
    9.325       49
    9.340       49
    9.355       47
    9.370       57
    9.385       58
    9.400       62
    9.415       56
    9.430       43
    9.445       51
    9.460       44
    9.475       54
    9.490       49
    9.505       42
    9.520       46
    9.535       51
    9.550       54
    9.565       53
    9.580       56
    9.595       51
    9.610       60
    9.625       57
    9.640       54
    9.655       49
    9.670       40
    9.685       49
    9.700       49
    9.715       37
    9.730       57
    9.745       72
    9.760       75
    9.775       63
    9.790       54
    9.805       49
    9.820       40
    9.835       43
    9.850       41
    9.865       44
    9.880       47
    9.895       47
    9.910       40
    9.925       49
    9.940       56
    9.955       56
    9.970       56
    9.985       46
   10.000       48
   10.015       52
   10.030       49
   10.045       53
   10.060       49
   10.075       54
   10.090       55
   10.105       50
   10.120       57
   10.135       53
   10.150       57
   10.165       57
   10.180       58
   10.195       69
   10.210       55
   10.225       63
   10.240       61
   10.255       49
   10.270       60
   10.285       56
   10.300       72
   10.315       65
   10.330       78
   10.345       66
   10.360       55
   10.375       63
   10.390       66
   10.405       80
   10.420       82
   10.435       81
   10.450       94
   10.465       72
   10.480       68
   10.495       65
   10.510       38
   10.525       53
   10.540       48
   10.555       52
   10.570       56
   10.585       60
   10.600       60
   10.615       55
   10.630       67
   10.645       70
   10.660       58
   10.675       73
   10.690       67
   10.705       82
   10.720       87
   10.735       72
   10.750       92
   10.765      100
   10.780      114
   10.795      130
   10.810      128
   10.825      135
   10.840       95
   10.855       74
   10.870       76
   10.885       67
   10.900       55
   10.915       52
   10.930       48
   10.945       51
   10.960       54
   10.975       62
   10.990       56
   11.005       55
   11.020       57
   11.035       60
   11.050       68
   11.065       70
   11.080       76
   11.095       82
   11.110       74
   11.125       71
   11.140       67
   11.155       73
   11.170       92
   11.185      120
   11.200       82
   11.215       90
   11.230       80
   11.245       64
   11.260       59
   11.275       55
   11.290       66
   11.305       71
   11.320       67
   11.335       63
   11.350       68
   11.365       75
   11.380       82
   11.395       79
   11.410       67
   11.425       57
   11.440       49
   11.455       57
   11.470       60
   11.485       61
   11.500       57
   11.515       44
   11.530       46
   11.545       56
   11.560       54
   11.575       48
   11.590       49
   11.605       50
   11.620       54
   11.635       53
   11.650       60
   11.665       64
   11.680       70
   11.695       68
   11.710       64
   11.725       64
   11.740       52
   11.755       61
   11.770       57
   11.785       77
   11.800       73
   11.815       76
   11.830       91
   11.845       78
   11.860       65
   11.875       61
   11.890       62
   11.905       64
   11.920       65
   11.935       46
   11.950       41
   11.965       64
   11.980       60
   11.995       74
   12.010       68
   12.025       73
   12.040       62
   12.055       62
   12.070       63
   12.085       64
   12.100       50
   12.115       53
   12.130       67
   12.145       57
   12.160       61
   12.175       62
   12.190       48
   12.205       51
   12.220       51
   12.235       57
   12.250       57
   12.265       64
   12.280       58
   12.295       68
   12.310       59
   12.325       55
   12.340       65
   12.355       58
   12.370       57
   12.385       56
   12.400       56
   12.415       63
   12.430       68
   12.445       79
   12.460      101
   12.475      104
   12.490      113
   12.505      121
   12.520      146
   12.535      165
   12.550      169
   12.565      189
   12.580      258
   12.595      316
   12.610      397
   12.625      432
   12.640      409
   12.655      333
   12.670      275
   12.685      273
   12.700      306
   12.715      292
   12.730      255
   12.745      180
   12.760      119
   12.775       92
   12.790       70
   12.805       72
   12.820       80
   12.835       71
   12.850       71
   12.865       84
   12.880       92
   12.895       96
   12.910       94
   12.925      104
   12.940      114
   12.955      102
   12.970      169
   12.985      196
   13.000      207
   13.015      213
   13.030      190
   13.045      174
   13.060      143
   13.075      163
   13.090      179
   13.105      208
   13.120      227
   13.135      274
   13.150      378
   13.165      477
   13.180      608
   13.195      625
   13.210      549
   13.225      478
   13.240      484
   13.255      526
   13.270      624
   13.285      840
   13.300     1059
   13.315      995
   13.330      795
   13.345      483
   13.360      237
   13.375      141
   13.390      131
   13.405      128
   13.420      116
   13.435      121
   13.450      161
   13.465      166
   13.480      154
   13.495      197
   13.510      249
   13.525      268
   13.540      279
   13.555      298
   13.570      300
   13.585      283
   13.600      203
   13.615      153
   13.630      101
   13.645       82
   13.660       64
   13.675       76
   13.690       96
   13.705       87
   13.720       90
   13.735       82
   13.750       72
   13.765       78
   13.780       89
   13.795      117
   13.810      103
   13.825       93
   13.840      102
   13.855       84
   13.870       69
   13.885       75
   13.900       78
   13.915       79
   13.930       73
   13.945       69
   13.960       64
   13.975       62
   13.990       58
   14.005       64
   14.020       71
   14.035       65
   14.050       58
   14.065       66
   14.080       73
   14.095       60
   14.110       65
   14.125       78
   14.140       87
   14.155       83
   14.170       90
   14.185       85
   14.200      110
   14.215      108
   14.230      107
   14.245      139
   14.260      164
   14.275      182
   14.290      166
   14.305      140
   14.320      125
   14.335      156
   14.350      158
   14.365      165
   14.380      168
   14.395      182
   14.410      176
   14.425      173
   14.440      171
   14.455      242
   14.470      276
   14.485      268
   14.500      228
   14.515      160
   14.530      115
   14.545       87
   14.560       77
   14.575       74
   14.590       69
   14.605       64
   14.620       71
   14.635       82
   14.650       69
   14.665       72
   14.680       66
   14.695       60
   14.710       79
   14.725       62
   14.740       61
   14.755       74
   14.770       71
   14.785       75
   14.800       67
   14.815       85
   14.830       99
   14.845       87
   14.860      102
   14.875      106
   14.890      110
   14.905      135
   14.920      162
   14.935      185
   14.950      230
   14.965      265
   14.980      337
   14.995      345
   15.010      381
   15.025      457
   15.040      530
   15.055      688
   15.070      690
   15.085      584
   15.100      417
   15.115      240
   15.130      153
   15.145      123
   15.160      107
   15.175       98
   15.190      122
   15.205      129
   15.220      140
   15.235      150
   15.250      187
   15.265      216
   15.280      244
   15.295      220
   15.310      203
   15.325      191
   15.340      168
   15.355      159
   15.370      166
   15.385      134
   15.400      117
   15.415      115
   15.430      110
   15.445      113
   15.460      106
   15.475      118
   15.490      164
   15.505      145
   15.520      176
   15.535      210
   15.550      251
   15.565      276
   15.580      265
   15.595      216
   15.610      172
   15.625      132
   15.640      129
   15.655      117
   15.670      113
   15.685      140
   15.700      142
   15.715      166
   15.730      188
   15.745      232
   15.760      240
   15.775      195
   15.790      155
   15.805      134
   15.820       94
   15.835       83
   15.850       78
   15.865       76
   15.880       87
   15.895       89
   15.910       75
   15.925       64
   15.940       95
   15.955      107
   15.970       99
   15.985      111
   16.000      109
   16.015      138
   16.030      169
   16.045      195
   16.060      195
   16.075      241
   16.090      284
   16.105      286
   16.120      238
   16.135      213
   16.150      158
   16.165      125
   16.180      113
   16.195      107
   16.210       86
   16.225      110
   16.240      133
   16.255      137
   16.270      159
   16.285      191
   16.300      189
   16.315      167
   16.330      192
   16.345      230
   16.360      245
   16.375      317
   16.390      396
   16.405      418
   16.420      391
   16.435      313
   16.450      218
   16.465      188
   16.480      170
   16.495      228
   16.510      294
   16.525      325
   16.540      317
   16.555      256
   16.570      188
   16.585      178
   16.600      174
   16.615      193
   16.630      202
   16.645      274
   16.660      303
   16.675      323
   16.690      312
   16.705      256
   16.720      226
   16.735      252
   16.750      287
   16.765      308
   16.780      304
   16.795      263
   16.810      195
   16.825      171
   16.840      113
   16.855       93
   16.870       93
   16.885      103
   16.900      125
   16.915      122
   16.930      131
   16.945      138
   16.960      156
   16.975      174
   16.990      178
   17.005      164
   17.020      137
   17.035      149
   17.050      142
   17.065      115
   17.080      121
   17.095      120
   17.110      139
   17.125      164
   17.140      187
   17.155      216
   17.170      228
   17.185      230
   17.200      236
   17.215      212
   17.230      177
   17.245      138
   17.260      118
   17.275      116
   17.290      108
   17.305      119
   17.320      105
   17.335      114
   17.350      114
   17.365      113
   17.380      121
   17.395      149
   17.410      152
   17.425      195
   17.440      216
   17.455      210
   17.470      187
   17.485      156
   17.500      120
   17.515       95
   17.530       88
   17.545       86
   17.560       87
   17.575       87
   17.590      102
   17.605      122
   17.620      110
   17.635      110
   17.650      115
   17.665      118
   17.680      109
   17.695       92
   17.710      107
   17.725      118
   17.740      106
   17.755       93
   17.770      112
   17.785       95
   17.800       92
   17.815       97
   17.830       71
   17.845       86
   17.860       66
   17.875       99
   17.890       75
   17.905       79
   17.920       73
   17.935       70
   17.950       78
   17.965       69
   17.980       71
   17.995       76
   18.010       73
   18.025       66
   18.040       71
   18.055       67
   18.070       79
   18.085       64
   18.100       58
   18.115       73
   18.130       95
   18.145       94
   18.160      102
   18.175      117
   18.190      111
   18.205      176
   18.220      142
   18.235      171
   18.250      188
   18.265      192
   18.280      178
   18.295      165
   18.310      115
   18.325       79
   18.340       81
   18.355       88
   18.370       89
   18.385       91
   18.400       79
   18.415       81
   18.430       85
   18.445       82
   18.460       96
   18.475      107
   18.490      125
   18.505      133
   18.520      124
   18.535      144
   18.550      144
   18.565      139
   18.580      127
   18.595      131
   18.610      159
   18.625      184
   18.640      179
   18.655      180
   18.670      179
   18.685      150
   18.700      127
   18.715      100
   18.730      104
   18.745       82
   18.760      110
   18.775       85
   18.790       91
   18.805      115
   18.820      107
   18.835      133
   18.850      149
   18.865      149
   18.880      135
   18.895      122
   18.910       97
   18.925       93
   18.940      105
   18.955      105
   18.970      113
   18.985       90
   19.000       84
   19.015       82
   19.030       79
   19.045       74
   19.060       74
   19.075       85
   19.090       66
   19.105       59
   19.120       74
   19.135       86
   19.150       78
   19.165       85
   19.180       69
   19.195       65
   19.210       78
   19.225       74
   19.240       76
   19.255       68
   19.270       68
   19.285       65
   19.300       77
   19.315       68
   19.330       64
   19.345       80
   19.360       83
   19.375       80
   19.390       71
   19.405       84
   19.420       82
   19.435       74
   19.450       75
   19.465       76
   19.480       91
   19.495       83
   19.510       92
   19.525      111
   19.540      129
   19.555      149
   19.570      134
   19.585      148
   19.600      136
   19.615      118
   19.630      119
   19.645      110
   19.660       81
   19.675       81
   19.690       79
   19.705       88
   19.720       97
   19.735      108
   19.750      107
   19.765      128
   19.780      159
   19.795      184
   19.810      235
   19.825      290
   19.840      352
   19.855      404
   19.870      339
   19.885      258
   19.900      235
   19.915      190
   19.930      184
   19.945      206
   19.960      216
   19.975      263
   19.990      230
   20.005      221
   20.020      235
   20.035      177
   20.050      141
   20.065      107
   20.080       94
   20.095       89
   20.110       78
   20.125       75
   20.140       93
   20.155      106
   20.170      109
   20.185       92
   20.200       91
   20.215      103
   20.230       95
   20.245       77
   20.260       72
   20.275       79
   20.290       83
   20.305       75
   20.320       79
   20.335       73
   20.350       68
   20.365       73
   20.380       77
   20.395       67
   20.410       59
   20.425       59
   20.440       71
   20.455       74
   20.470       75
   20.485       86
   20.500       86
   20.515       74
   20.530       72
   20.545       84
   20.560       85
   20.575       61
   20.590       63
   20.605       76
   20.620       82
   20.635       79
   20.650       78
   20.665       94
   20.680       98
   20.695      109
   20.710      136
   20.725      153
   20.740      134
   20.755      120
   20.770      134
   20.785      148
   20.800      141
   20.815      174
   20.830      156
   20.845      147
   20.860      121
   20.875       83
   20.890       80
   20.905       81
   20.920       79
   20.935       98
   20.950       88
   20.965       77
   20.980       85
   20.995       87
   21.010       75
   21.025       68
   21.040       66
   21.055       70
   21.070       72
   21.085       83
   21.100       66
   21.115       85
   21.130       72
   21.145       75
   21.160       96
   21.175       93
   21.190      102
   21.205      100
   21.220       92
   21.235       79
   21.250       72
   21.265       69
   21.280       68
   21.295       62
   21.310       67
   21.325       59
   21.340       68
   21.355       67
   21.370       57
   21.385       54
   21.400       74
   21.415       64
   21.430       74
   21.445       92
   21.460       92
   21.475      108
   21.490      127
   21.505      136
   21.520      156
   21.535      216
   21.550      240
   21.565      198
   21.580      170
   21.595      142
   21.610      135
   21.625      121
   21.640      135
   21.655      152
   21.670      198
   21.685      248
   21.700      335
   21.715      396
   21.730      474
   21.745      500
   21.760      472
   21.775      354
   21.790      224
   21.805      165
   21.820      155
   21.835      145
   21.850      134
   21.865      120
   21.880      105
   21.895      104
   21.910       96
   21.925       81
   21.940       90
   21.955       84
   21.970       75
   21.985       62
   22.000       64
   22.015       67
   22.030       71
   22.045       69
   22.060       72
   22.075       70
   22.090       69
   22.105       69
   22.120       63
   22.135       74
   22.150       69
   22.165       80
   22.180       80
   22.195       75
   22.210       70
   22.225       79
   22.240       90
   22.255       90
   22.270       80
   22.285       82
   22.300       79
   22.315       97
   22.330       99
   22.345       89
   22.360       95
   22.375      110
   22.390      105
   22.405       87
   22.420       87
   22.435       82
   22.450       69
   22.465       88
   22.480       83
   22.495       94
   22.510      112
   22.525      129
   22.540      153
   22.555      146
   22.570      170
   22.585      162
   22.600      142
   22.615      116
   22.630      105
   22.645       91
   22.660       96
   22.675      106
   22.690      120
   22.705      129
   22.720      162
   22.735      169
   22.750      182
   22.765      208
   22.780      208
   22.795      203
   22.810      187
   22.825      185
   22.840      148
   22.855      130
   22.870      108
   22.885      107
   22.900       92
   22.915       86
   22.930       93
   22.945       94
   22.960       87
   22.975       94
   22.990      108
   23.005      112
   23.020      106
   23.035      104
   23.050      105
   23.065       99
   23.080      104
   23.095      101
   23.110      118
   23.125      133
   23.140      143
   23.155      120
   23.170       98
   23.185       88
   23.200       81
   23.215       74
   23.230       67
   23.245       71
   23.260       72
   23.275       71
   23.290       77
   23.305       70
   23.320       75
   23.335       87
   23.350       69
   23.365       69
   23.380       69
   23.395       70
   23.410       65
   23.425       64
   23.440       54
   23.455       63
   23.470       55
   23.485       62
   23.500       56
   23.515       64
   23.530       64
   23.545       58
   23.560       62
   23.575       72
   23.590       75
   23.605       63
   23.620       73
   23.635       59
   23.650       59
   23.665       66
   23.680       63
   23.695       55
   23.710       62
   23.725       68
   23.740       65
   23.755       66
   23.770       75
   23.785       72
   23.800       76
   23.815       60
   23.830       79
   23.845       71
   23.860       93
   23.875       83
   23.890       90
   23.905      103
   23.920      110
   23.935      100
   23.950      105
   23.965       83
   23.980       73
   23.995       66
   24.010       69
   24.025       66
   24.040       73
   24.055       68
   24.070       64
   24.085       65
   24.100       69
   24.115       84
   24.130       77
   24.145       97
   24.160      113
   24.175      113
   24.190       94
   24.205       78
   24.220       92
   24.235       89
   24.250       70
   24.265       67
   24.280       64
   24.295       72
   24.310       65
   24.325       64
   24.340       73
   24.355       71
   24.370       87
   24.385       93
   24.400       97
   24.415       69
   24.430       65
   24.445       72
   24.460       85
   24.475       86
   24.490      117
   24.505       93
   24.520       88
   24.535       94
   24.550       97
   24.565      100
   24.580      100
   24.595       97
   24.610       79
   24.625       85
   24.640       86
   24.655       74
   24.670       73
   24.685       97
   24.700       85
   24.715       86
   24.730       87
   24.745       64
   24.760       62
   24.775       63
   24.790       78
   24.805       66
   24.820       65
   24.835       79
   24.850       76
   24.865       97
   24.880      102
   24.895       97
   24.910      118
   24.925      106
   24.940       96
   24.955      101
   24.970       86
   24.985       73
   25.000       72
   25.015       73
   25.030       77
   25.045       73
   25.060       65
   25.075       89
   25.090      106
   25.105      118
   25.120       93
   25.135       85
   25.150       73
   25.165       85
   25.180       70
   25.195       81
   25.210       82
   25.225       85
   25.240       78
   25.255       72
   25.270       76
   25.285       90
   25.300       92
   25.315       98
   25.330      113
   25.345      111
   25.360       96
   25.375      102
   25.390       99
   25.405       92
   25.420       98
   25.435       92
   25.450       88
   25.465       83
   25.480       85
   25.495       77
   25.510       93
   25.525      101
   25.540      127
   25.555      152
   25.570      158
   25.585      158
   25.600      176
   25.615      157
   25.630      148
   25.645      111
   25.660       99
   25.675      101
   25.690       76
   25.705       89
   25.720       81
   25.735       86
   25.750       91
   25.765      103
   25.780      102
   25.795      121
   25.810      138
   25.825      138
   25.840      109
   25.855       95
   25.870       93
   25.885       85
   25.900       71
   25.915       73
   25.930       79
   25.945       82
   25.960       82
   25.975       78
   25.990       88
   26.005       94
   26.020       85
   26.035       82
   26.050       86
   26.065      101
   26.080       97
   26.095      105
   26.110       94
   26.125       77
   26.140       75
   26.155       74
   26.170       72
   26.185       64
   26.200       72
   26.215       78
   26.230       81
   26.245       80
   26.260       84
   26.275       81
   26.290       81
   26.305       60
   26.320       67
   26.335       77
   26.350       76
   26.365       71
   26.380       71
   26.395       67
   26.410       66
   26.425       53
   26.440       49
   26.455       60
   26.470       72
   26.485       65
   26.500       78
   26.515       88
   26.530       95
   26.545       96
   26.560       92
   26.575       99
   26.590       76
   26.605       92
   26.620       85
   26.635       67
   26.650       73
   26.665       60
   26.680       63
   26.695       73
   26.710       69
   26.725       87
   26.740       86
   26.755       84
   26.770      102
   26.785      109
   26.800      131
   26.815      144
   26.830      138
   26.845      149
   26.860      133
   26.875      143
   26.890      132
   26.905      127
   26.920      135
   26.935      110
   26.950       97
   26.965      100
   26.980       76
   26.995       88
   27.010       92
   27.025       78
   27.040       73
   27.055       68
   27.070       78
   27.085       80
   27.100       71
   27.115       59
   27.130       71
   27.145       82
   27.160       99
   27.175       86
   27.190       70
   27.205       68
   27.220       85
   27.235       82
   27.250       77
   27.265       74
   27.280       75
   27.295       91
   27.310       90
   27.325       77
   27.340       88
   27.355       87
   27.370       85
   27.385       90
   27.400       98
   27.415      121
   27.430      125
   27.445      139
   27.460      148
   27.475      131
   27.490      157
   27.505      147
   27.520      166
   27.535      161
   27.550      129
   27.565      125
   27.580      108
   27.595      114
   27.610      119
   27.625       98
   27.640       93
   27.655       91
   27.670       89
   27.685       71
   27.700       64
   27.715       93
   27.730      102
   27.745       87
   27.760       97
   27.775      108
   27.790      106
   27.805      111
   27.820      120
   27.835      123
   27.850      104
   27.865       89
   27.880       85
   27.895       84
   27.910       82
   27.925       64
   27.940       56
   27.955       72
   27.970       75
   27.985       72
   28.000       86
   28.015       88
   28.030       92
   28.045       88
   28.060      103
   28.075      101
   28.090       87
   28.105       80
   28.120       75
   28.135       88
   28.150       86
   28.165       83
   28.180       75
   28.195       99
   28.210       82
   28.225       86
   28.240       95
   28.255      104
   28.270       87
   28.285       88
   28.300       86
   28.315      107
   28.330       93
   28.345       95
   28.360       95
   28.375       80
   28.390       70
   28.405       68
   28.420       67
   28.435       76
   28.450       65
   28.465       65
   28.480       68
   28.495       66
   28.510       70
   28.525       67
   28.540       79
   28.555       71
   28.570       83
   28.585       79
   28.600       79
   28.615       79
   28.630       80
   28.645       80
   28.660       78
   28.675       88
   28.690       85
   28.705       78
   28.720       69
   28.735       79
   28.750       92
   28.765       94
   28.780       95
   28.795       88
   28.810       92
   28.825       92
   28.840       89
   28.855       86
   28.870       94
   28.885       92
   28.900      102
   28.915       85
   28.930       79
   28.945       77
   28.960       98
   28.975       98
   28.990       91
   29.005      105
   29.020       91
   29.035       84
   29.050       66
   29.065       86
   29.080       86
   29.095       83
   29.110       83
   29.125       74
   29.140       81
   29.155       79
   29.170       91
   29.185       84
   29.200       81
   29.215       88
   29.230       89
   29.245       83
   29.260       82
   29.275       83
   29.290       79
   29.305       75
   29.320       70
   29.335       78
   29.350       79
   29.365       68
   29.380       78
   29.395       74
   29.410       68
   29.425       85
   29.440       73
   29.455       75
   29.470       82
   29.485       88
   29.500       96
   29.515       84
   29.530       81
   29.545      100
   29.560      114
   29.575      126
   29.590      108
   29.605      108
   29.620      102
   29.635       86
   29.650       89
   29.665       76
   29.680       93
   29.695       89
   29.710       81
   29.725       73
   29.740       92
   29.755       76
   29.770       97
   29.785       97
   29.800       82
   29.815       83
   29.830       69
   29.845       70
   29.860       73
   29.875       75
   29.890       78
   29.905       66
   29.920       66
   29.935       71
   29.950       68
   29.965       64
   29.980       56
   29.995       84
   30.010       74
   30.025       63
   30.040       58
   30.055       67
   30.070       70
   30.085       73
   30.100       56
   30.115       67
   30.130       58
   30.145       59
   30.160       65
   30.175       64
   30.190       76
   30.205       61
   30.220       57
   30.235       68
   30.250       73
   30.265       82
   30.280       70
   30.295       71
   30.310       68
   30.325       81
   30.340       71
   30.355       77
   30.370       86
   30.385       89
   30.400       88
   30.415       86
   30.430       82
   30.445       78
   30.460       84
   30.475       84
   30.490       87
   30.505       94
   30.520       88
   30.535       92
   30.550       89
   30.565       78
   30.580       86
   30.595       81
   30.610       74
   30.625       67
   30.640       66
   30.655       78
   30.670       65
   30.685       75
   30.700       76
   30.715       78
   30.730       69
   30.745       69
   30.760       64
   30.775       86
   30.790       82
   30.805       96
   30.820       90
   30.835       89
   30.850       97
   30.865       80
   30.880       91
   30.895       89
   30.910       88
   30.925       76
   30.940       95
   30.955       97
   30.970       78
   30.985       78
   31.000       89
   31.015       79
   31.030       86
   31.045       84
   31.060       78
   31.075       69
   31.090       82
   31.105       76
   31.120       71
   31.135       66
   31.150       74
   31.165       79
   31.180       77
   31.195       77
   31.210       75
   31.225       79
   31.240       80
   31.255       90
   31.270       81
   31.285       92
   31.300       82
   31.315       97
   31.330       95
   31.345       78
   31.360       89
   31.375       87
   31.390       75
   31.405       77
   31.420       58
   31.435       73
   31.450       91
   31.465      102
   31.480       88
   31.495      102
   31.510       92
   31.525       83
   31.540       84
   31.555       81
   31.570       78
   31.585       76
   31.600       89
   31.615       99
   31.630       98
   31.645      110
   31.660       94
   31.675       82
   31.690       89
   31.705      101
   31.720       95
   31.735       95
   31.750      103
   31.765      107
   31.780      117
   31.795       94
   31.810       88
   31.825       80
   31.840       73
   31.855       72
   31.870       99
   31.885       82
   31.900       69
   31.915       76
   31.930       71
   31.945       67
   31.960       76
   31.975       88
   31.990       73
   32.005       86
   32.020       84
   32.035       74
   32.050       72
   32.065       78
   32.080       76
   32.095       83
   32.110       65
   32.125       68
   32.140       68
   32.155       75
   32.170       63
   32.185       72
   32.200       68
   32.215       68
   32.230       72
   32.245       62
   32.260       77
   32.275       77
   32.290       87
   32.305       77
   32.320       80
   32.335       76
   32.350       71
   32.365       65
   32.380       78
   32.395       66
   32.410       84
   32.425       72
   32.440       68
   32.455       70
   32.470       68
   32.485       65
   32.500       68
   32.515       72
   32.530       70
   32.545       63
   32.560       75
   32.575       80
   32.590       72
   32.605       52
   32.620       61
   32.635       63
   32.650       78
   32.665       71
   32.680       60
   32.695       77
   32.710       76
   32.725       75
   32.740       88
   32.755       69
   32.770       68
   32.785       75
   32.800       88
   32.815       86
   32.830      109
   32.845      108
   32.860       90
   32.875       95
   32.890      107
   32.905       97
   32.920       93
   32.935       85
   32.950       87
   32.965       78
   32.980       80
   32.995       69
   33.010       77
   33.025       81
   33.040       81
   33.055       66
   33.070       77
   33.085       70
   33.100       70
   33.115       73
   33.130       69
   33.145       78
   33.160       62
   33.175       78
   33.190       83
   33.205       79
   33.220       66
   33.235       75
   33.250       78
   33.265       75
   33.280       92
   33.295       90
   33.310       95
   33.325      110
   33.340       88
   33.355       97
   33.370      100
   33.385      105
   33.400       94
   33.415      104
   33.430       94
   33.445       93
   33.460       86
   33.475       90
   33.490       88
   33.505       90
   33.520       90
   33.535       89
   33.550       81
   33.565       81
   33.580       84
   33.595       77
   33.610       84
   33.625       85
   33.640       84
   33.655       89
   33.670      106
   33.685       98
   33.700      105
   33.715       94
   33.730       89
   33.745       88
   33.760       76
   33.775       91
   33.790       94
   33.805       77
   33.820       77
   33.835       88
   33.850       87
   33.865       83
   33.880       80
   33.895       88
   33.910       94
   33.925       90
   33.940       83
   33.955       92
   33.970      103
   33.985       82
   34.000       81
   34.015       99
   34.030       86
   34.045       85
   34.060       61
   34.075       84
   34.090       56
   34.105       57
   34.120       61
   34.135       73
   34.150       72
   34.165       64
   34.180       62
   34.195       74
   34.210       55
   34.225       77
   34.240       71
   34.255       69
   34.270       63
   34.285       75
   34.300       70
   34.315       58
   34.330       70
   34.345       84
   34.360       84
   34.375       82
   34.390       88
   34.405       77
   34.420       78
   34.435       96
   34.450       65
   34.465       66
   34.480       66
   34.495       88
   34.510       71
   34.525       59
   34.540       76
   34.555       62
   34.570       73
   34.585       70
   34.600       70
   34.615       77
   34.630       78
   34.645       74
   34.660       65
   34.675       71
   34.690       72
   34.705       71
   34.720       57
   34.735       68
   34.750       64
   34.765       80
   34.780       70
   34.795       66
   34.810       57
   34.825       74
   34.840       72
   34.855       63
   34.870       60
   34.885       72
   34.900       92
   34.915       81
   34.930       92
   34.945       92
   34.960       71
   34.975       77
   34.990       82
   35.005       76
   35.020       70
   35.035       71
   35.050       83
   35.065      100
   35.080       87
   35.095       91
   35.110       82
   35.125       88
   35.140       98
   35.155       88
   35.170      102
   35.185       96
   35.200       90
   35.215       84
   35.230       79
   35.245       78
   35.260       84
   35.275       83
   35.290       76
   35.305       91
   35.320      108
   35.335      100
   35.350       87
   35.365      105
   35.380       90
   35.395       99
   35.410      109
   35.425      102
   35.440      118
   35.455      110
   35.470       91
   35.485       95
   35.500       88
   35.515       89
   35.530       97
   35.545      101
   35.560       75
   35.575       75
   35.590       72
   35.605       68
   35.620       83
   35.635       94
   35.650       78
   35.665       73
   35.680       77
   35.695       82
   35.710       64
   35.725       71
   35.740       68
   35.755       79
   35.770       68
   35.785       71
   35.800       73
   35.815       67
   35.830       77
   35.845       66
   35.860       55
   35.875       55
   35.890       71
   35.905       63
   35.920       67
   35.935       74
   35.950       64
   35.965       60
   35.980       69
   35.995       71
   36.010       61
   36.025       73
   36.040       61
   36.055       65
   36.070       70
   36.085       64
   36.100       69
   36.115       84
   36.130       77
   36.145       88
   36.160       80
   36.175       73
   36.190      106
   36.205       83
   36.220       70
   36.235       64
   36.250       71
   36.265       57
   36.280       59
   36.295       63
   36.310       64
   36.325       69
   36.340       73
   36.355       70
   36.370       69
   36.385       73
   36.400       64
   36.415       72
   36.430       73
   36.445       72
   36.460       66
   36.475       78
   36.490       69
   36.505       61
   36.520       62
   36.535       68
   36.550       67
   36.565       62
   36.580       55
   36.595       67
   36.610       64
   36.625       76
   36.640       82
   36.655       72
   36.670       76
   36.685       91
   36.700       78
   36.715       79
   36.730       64
   36.745       84
   36.760       69
   36.775       74
   36.790       74
   36.805       67
   36.820       59
   36.835       72
   36.850       74
   36.865       74
   36.880       62
   36.895       66
   36.910       79
   36.925       80
   36.940       83
   36.955       69
   36.970       74
   36.985       78
   37.000       92
   37.015       64
   37.030       76
   37.045       67
   37.060       65
   37.075       62
   37.090       70
   37.105       71
   37.120       62
   37.135       76
   37.150       64
   37.165       76
   37.180       87
   37.195       84
   37.210       97
   37.225       65
   37.240       70
   37.255       63
   37.270       72
   37.285       61
   37.300       58
   37.315       70
   37.330       68
   37.345       62
   37.360       71
   37.375       78
   37.390       62
   37.405       60
   37.420       70
   37.435       53
   37.450       51
   37.465       70
   37.480       67
   37.495       64
   37.510       56
   37.525       57
   37.540       70
   37.555       57
   37.570       69
   37.585       68
   37.600       68
   37.615       83
   37.630       65
   37.645       53
   37.660       74
   37.675       60
   37.690       55
   37.705       76
   37.720       79
   37.735       74
   37.750       66
   37.765       57
   37.780       62
   37.795       71
   37.810       71
   37.825       72
   37.840       66
   37.855       84
   37.870       85
   37.885       83
   37.900       86
   37.915       80
   37.930       68
   37.945       63
   37.960       63
   37.975       56
   37.990       60
   38.005       66
   38.020       66
   38.035       60
   38.050       64
   38.065       70
   38.080       75
   38.095       74
   38.110       79
   38.125       74
   38.140       74
   38.155       78
   38.170       63
   38.185       64
   38.200       73
   38.215       69
   38.230       78
   38.245       98
   38.260       91
   38.275       91
   38.290       94
   38.305       88
   38.320       74
   38.335       71
   38.350       72
   38.365       68
   38.380       71
   38.395       72
   38.410       66
   38.425       68
   38.440       79
   38.455       75
   38.470       71
   38.485       67
   38.500       63
   38.515       68
   38.530       71
   38.545       71
   38.560       65
   38.575       85
   38.590       67
   38.605       71
   38.620       74
   38.635       56
   38.650       58
   38.665       73
   38.680       53
   38.695       60
   38.710       69
   38.725       63
   38.740       62
   38.755       72
   38.770       78
   38.785       66
   38.800       69
   38.815       45
   38.830       65
   38.845       64
   38.860       73
   38.875       66
   38.890       61
   38.905       65
   38.920       72
   38.935       63
   38.950       69
   38.965       55
   38.980       63
   38.995       71
   39.010       59
   39.025       77
   39.040       69
   39.055       63
   39.070       78
   39.085       61
   39.100       56
   39.115       64
   39.130       55
   39.145       51
   39.160       44
   39.175       54
   39.190       60
   39.205       63
   39.220       51
   39.235       47
   39.250       43
   39.265       68
   39.280       68
   39.295       58
   39.310       70
   39.325       63
   39.340       62
   39.355       58
   39.370       65
   39.385       71
   39.400       71
   39.415       69
   39.430       60
   39.445       63
   39.460       68
   39.475       51
   39.490       51
   39.505       56
   39.520       60
   39.535       71
   39.550       64
   39.565       63
   39.580       55
   39.595       58
   39.610       73
   39.625       66
   39.640       59
   39.655       61
   39.670       68
   39.685       77
   39.700       67
   39.715       70
   39.730       62
   39.745       74
   39.760       77
   39.775       69
   39.790       52
   39.805       58
   39.820       52
   39.835       58
   39.850       61
   39.865       62
   39.880       55
   39.895       50
   39.910       48
   39.925       57
   39.940       67
   39.955       60
   39.970       66
   39.985       56
   40.000       65
   40.015       67
   40.030       64
   40.045       53
   40.060       54
   40.075       67
   40.090       79
   40.105       71
   40.120       56
   40.135       58
   40.150       59
   40.165       70
   40.180       57
   40.195       63
   40.210       52
   40.225       65
   40.240       66
   40.255       64
   40.270       67
   40.285       61
   40.300       68
   40.315       79
   40.330       72
   40.345       69
   40.360       63
   40.375       73
   40.390       59
   40.405       62
   40.420       74
   40.435       74
   40.450       72
   40.465       65
   40.480       58
   40.495       66
   40.510       57
   40.525       63
   40.540       64
   40.555       57
   40.570       59
   40.585       60
   40.600       72
   40.615       59
   40.630       64
   40.645       57
   40.660       67
   40.675       68
   40.690       65
   40.705       60
   40.720       73
   40.735       58
   40.750       60
   40.765       64
   40.780       62
   40.795       66
   40.810       53
   40.825       53
   40.840       55
   40.855       63
   40.870       61
   40.885       60
   40.900       60
   40.915       57
   40.930       62
   40.945       57
   40.960       61
   40.975       66
   40.990       52
   41.005       61
   41.020       57
   41.035       56
   41.050       48
   41.065       57
   41.080       62
   41.095       58
   41.110       45
   41.125       48
   41.140       57
   41.155       58
   41.170       57
   41.185       67
   41.200       73
   41.215       51
   41.230       47
   41.245       54
   41.260       58
   41.275       61
   41.290       52
   41.305       58
   41.320       58
   41.335       65
   41.350       60
   41.365       65
   41.380       71
   41.395       66
   41.410       60
   41.425       65
   41.440       63
   41.455       55
   41.470       59
   41.485       57
   41.500       57
   41.515       56
   41.530       60
   41.545       65
   41.560       61
   41.575       54
   41.590       65
   41.605       60
   41.620       71
   41.635       66
   41.650       48
   41.665       59
   41.680       74
   41.695       56
   41.710       59
   41.725       69
   41.740       57
   41.755       63
   41.770       74
   41.785       73
   41.800       55
   41.815       65
   41.830       58
   41.845       63
   41.860       62
   41.875       60
   41.890       62
   41.905       53
   41.920       63
   41.935       58
   41.950       60
   41.965       68
   41.980       56
   41.995       61
   42.010       55
   42.025       60
   42.040       72
   42.055       56
   42.070       66
   42.085       66
   42.100       53
   42.115       57
   42.130       66
   42.145       64
   42.160       59
   42.175       69
   42.190       73
   42.205       82
   42.220       60
   42.235       57
   42.250       70
   42.265       65
   42.280       54
   42.295       55
   42.310       70
   42.325       72
   42.340       65
   42.355       68
   42.370       71
   42.385       69
   42.400       51
   42.415       53
   42.430       60
   42.445       66
   42.460       66
   42.475       60
   42.490       65
   42.505       61
   42.520       72
   42.535       66
   42.550       58
   42.565       70
   42.580       63
   42.595       55
   42.610       68
   42.625       70
   42.640       69
   42.655       55
   42.670       61
   42.685       63
   42.700       67
   42.715       60
   42.730       59
   42.745       59
   42.760       59
   42.775       53
   42.790       56
   42.805       57
   42.820       58
   42.835       59
   42.850       52
   42.865       60
   42.880       54
   42.895       54
   42.910       59
   42.925       61
   42.940       59
   42.955       56
   42.970       61
   42.985       61
   43.000       61
   43.015       59
   43.030       63
   43.045       60
   43.060       63
   43.075       71
   43.090       61
   43.105       55
   43.120       72
   43.135       67
   43.150       61
   43.165       76
   43.180       76
   43.195       54
   43.210       60
   43.225       65
   43.240       68
   43.255       75
   43.270       61
   43.285       62
   43.300       50
   43.315       65
   43.330       54
   43.345       54
   43.360       46
   43.375       51
   43.390       63
   43.405       60
   43.420       60
   43.435       43
   43.450       59
   43.465       69
   43.480       61
   43.495       56
   43.510       63
   43.525       68
   43.540       55
   43.555       58
   43.570       66
   43.585       54
   43.600       64
   43.615       64
   43.630       64
   43.645       62
   43.660       56
   43.675       57
   43.690       59
   43.705       52
   43.720       55
   43.735       50
   43.750       66
   43.765       63
   43.780       62
   43.795       56
   43.810       63
   43.825       54
   43.840       56
   43.855       63
   43.870       58
   43.885       67
   43.900       75
   43.915       68
   43.930       68
   43.945       58
   43.960       65
   43.975       65
   43.990       58
   44.005       57
   44.020       66
   44.035       63
   44.050       66
   44.065       65
   44.080       69
   44.095       69
   44.110       60
   44.125       59
   44.140       65
   44.155       57
   44.170       54
   44.185       61
   44.200       59
   44.215       64
   44.230       51
   44.245       60
   44.260       59
   44.275       61
   44.290       70
   44.305       70
   44.320       58
   44.335       65
   44.350       64
   44.365       69
   44.380       75
   44.395       70
   44.410       67
   44.425       62
   44.440       61
   44.455       50
   44.470       54
   44.485       62
   44.500       63
   44.515       57
   44.530       57
   44.545       63
   44.560       69
   44.575       62
   44.590       57
   44.605       68
   44.620       68
   44.635       58
   44.650       56
   44.665       61
   44.680       60
   44.695       57
   44.710       55
   44.725       71
   44.740       59
   44.755       72
   44.770       48
   44.785       56
   44.800       70
   44.815       61
   44.830       66
   44.845       50
   44.860       50
   44.875       61
   44.890       69
   44.905       63
   44.920       59
   44.935       64
   44.950       55
   44.965       61
   44.980       62
   44.995       55
   45.010       73
   45.025       56
   45.040       64
   45.055       66
   45.070       56
   45.085       67
   45.100       61
   45.115       61
   45.130       70
   45.145       62
   45.160       58
   45.175       57
   45.190       67
   45.205       65
   45.220       61
   45.235       58
   45.250       62
   45.265       61
   45.280       55
   45.295       57
   45.310       70
   45.325       56
   45.340       66
   45.355       62
   45.370       62
   45.385       74
   45.400       60
   45.415       57
   45.430       57
   45.445       61
   45.460       59
   45.475       63
   45.490       59
   45.505       76
   45.520       59
   45.535       48
   45.550       57
   45.565       54
   45.580       66
   45.595       55
   45.610       62
   45.625       55
   45.640       54
   45.655       50
   45.670       57
   45.685       52
   45.700       48
   45.715       45
   45.730       57
   45.745       62
   45.760       59
   45.775       66
   45.790       71
   45.805       59
   45.820       54
   45.835       47
   45.850       53
   45.865       57
   45.880       46
   45.895       56
   45.910       61
   45.925       52
   45.940       51
   45.955       45
   45.970       54
   45.985       66
