    4.000       45
    4.015       56
    4.030       64
    4.045       60
    4.060       55
    4.075       44
    4.090       50
    4.105       50
    4.120       57
    4.135       60
    4.150       48
    4.165       54
    4.180       50
    4.195       50
    4.210       48
    4.225       54
    4.240       48
    4.255       55
    4.270       50
    4.285       55
    4.300       61
    4.315       63
    4.330       49
    4.345       52
    4.360       57
    4.375       45
    4.390       50
    4.405       54
    4.420       50
    4.435       47
    4.450       48
    4.465       48
    4.480       51
    4.495       49
    4.510       48
    4.525       54
    4.540       60
    4.555       44
    4.570       53
    4.585       52
    4.600       61
    4.615       59
    4.630       56
    4.645       58
    4.660       60
    4.675       60
    4.690       49
    4.705       48
    4.720       49
    4.735       56
    4.750       50
    4.765       53
    4.780       53
    4.795       58
    4.810       47
    4.825       43
    4.840       46
    4.855       50
    4.870       50
    4.885       53
    4.900       57
    4.915       67
    4.930       54
    4.945       53
    4.960       44
    4.975       60
    4.990       65
    5.005       57
    5.020       42
    5.035       42
    5.050       48
    5.065       53
    5.080       54
    5.095       56
    5.110       56
    5.125       52
    5.140       50
    5.155       51
    5.170       50
    5.185       43
    5.200       43
    5.215       45
    5.230       54
    5.245       49
    5.260       51
    5.275       50
    5.290       53
    5.305       56
    5.320       53
    5.335       64
    5.350       60
    5.365       52
    5.380       44
    5.395       42
    5.410       53
    5.425       50
    5.440       53
    5.455       49
    5.470       44
    5.485       48
    5.500       51
    5.515       54
    5.530       54
    5.545       52
    5.560       49
    5.575       43
    5.590       47
    5.605       48
    5.620       54
    5.635       54
    5.650       51
    5.665       59
    5.680       50
    5.695       49
    5.710       50
    5.725       51
    5.740       53
    5.755       53
    5.770       42
    5.785       48
    5.800       45
    5.815       51
    5.830       40
    5.845       43
    5.860       45
    5.875       42
    5.890       54
    5.905       48
    5.920       42
    5.935       45
    5.950       47
    5.965       49
    5.980       44
    5.995       47
    6.010       50
    6.025       47
    6.040       50
    6.055       55
    6.070       56
    6.085       59
    6.100       51
    6.115       50
    6.130       55
    6.145       43
    6.160       44
    6.175       50
    6.190       45
    6.205       45
    6.220       51
    6.235       60
    6.250       52
    6.265       51
    6.280       58
    6.295       52
    6.310       61
    6.325       57
    6.340       72
    6.355       70
    6.370       76
    6.385       72
    6.400       79
    6.415       81
    6.430       82
    6.445       78
    6.460      114
    6.475      109
    6.490       91
    6.505       99
    6.520      103
    6.535      116
    6.550      136
    6.565      161
    6.580      191
    6.595      216
    6.610      215
    6.625      194
    6.640      203
    6.655      201
    6.670      220
    6.685      180
    6.700      116
    6.715       70
    6.730       46
    6.745       54
    6.760       58
    6.775       45
    6.790       52
    6.805       37
    6.820       54
    6.835       49
    6.850       52
    6.865       46
    6.880       36
    6.895       40
    6.910       54
    6.925       52
    6.940       45
    6.955       41
    6.970       50
    6.985       67
    7.000       62
    7.015       55
    7.030       54
    7.045       62
    7.060       58
    7.075       60
    7.090       71
    7.105       62
    7.120       73
    7.135       68
    7.150       88
    7.165       96
    7.180      101
    7.195      121
    7.210       94
    7.225       55
    7.240       61
    7.255       43
    7.270       56
    7.285       51
    7.300       35
    7.315       46
    7.330       50
    7.345       49
    7.360       60
    7.375       42
    7.390       52
    7.405       46
    7.420       47
    7.435       43
    7.450       49
    7.465       45
    7.480       50
    7.495       54
    7.510       41
    7.525       41
    7.540       52
    7.555       55
    7.570       47
    7.585       54
    7.600       47
    7.615       56
    7.630       45
    7.645       45
    7.660       47
    7.675       48
    7.690       45
    7.705       40
    7.720       44
    7.735       45
    7.750       48
    7.765       45
    7.780       48
    7.795       44
    7.810       42
    7.825       45
    7.840       50
    7.855       46
    7.870       50
    7.885       53
    7.900       45
    7.915       42
    7.930       42
    7.945       35
    7.960       40
    7.975       49
    7.990       45
    8.005       44
    8.020       51
    8.035       39
    8.050       43
    8.065       55
    8.080       46
    8.095       53
    8.110       45
    8.125       41
    8.140       50
    8.155       39
    8.170       35
    8.185       42
    8.200       52
    8.215       45
    8.230       47
    8.245       37
    8.260       42
    8.275       46
    8.290       42
    8.305       42
    8.320       48
    8.335       42
    8.350       44
    8.365       32
    8.380       47
    8.395       41
    8.410       41
    8.425       46
    8.440       43
    8.455       36
    8.470       41
    8.485       45
    8.500       45
    8.515       45
    8.530       50
    8.545       49
    8.560       53
    8.575       55
    8.590       66
    8.605       53
    8.620       46
    8.635       48
    8.650       47
    8.665       39
    8.680       45
    8.695       58
    8.710       45
    8.725       46
    8.740       51
    8.755       43
    8.770       38
    8.785       47
    8.800       45
    8.815       47
    8.830       48
    8.845       51
    8.860       47
    8.875       42
    8.890       53
    8.905       45
    8.920       49
    8.935       43
    8.950       50
    8.965       51
    8.980       44
    8.995       43
    9.010       39
    9.025       36
    9.040       44
    9.055       40
    9.070       41
    9.085       37
    9.100       31
    9.115       46
    9.130       43
    9.145       50
    9.160       47
    9.175       58
    9.190       50
    9.205       41
    9.220       46
    9.235       50
    9.250       45
    9.265       36
    9.280       57
    9.295       43
    9.310       44
    9.325       41
    9.340       41
    9.355       43
    9.370       52
    9.385       54
    9.400       46
    9.415       39
    9.430       37
    9.445       44
    9.460       44
    9.475       42
    9.490       47
    9.505       55
    9.520       43
    9.535       54
    9.550       52
    9.565       46
    9.580       48
    9.595       52
    9.610       47
    9.625       42
    9.640       42
    9.655       47
    9.670       48
    9.685       46
    9.700       41
    9.715       50
    9.730       59
    9.745       50
    9.760       49
    9.775       50
    9.790       61
    9.805       77
    9.820       68
    9.835       64
    9.850       55
    9.865       33
    9.880       37
    9.895       42
    9.910       42
    9.925       47
    9.940       43
    9.955       37
    9.970       47
    9.985       49
   10.000       40
   10.015       51
   10.030       55
   10.045       52
   10.060       53
   10.075       56
   10.090       51
   10.105       56
   10.120       53
   10.135       54
   10.150       43
   10.165       50
   10.180       46
   10.195       58
   10.210       43
   10.225       51
   10.240       64
   10.255       54
   10.270       63
   10.285       51
   10.300       55
   10.315       75
   10.330       73
   10.345       60
   10.360       76
   10.375       97
   10.390       95
   10.405      118
   10.420      114
   10.435      114
   10.450      111
   10.465      116
   10.480      114
   10.495      102
   10.510       76
   10.525       56
   10.540       55
   10.555       50
   10.570       54
   10.585       51
   10.600       64
   10.615       65
   10.630       59
   10.645       48
   10.660       45
   10.675       53
   10.690       58
   10.705       54
   10.720       58
   10.735       73
   10.750       81
   10.765       76
   10.780       71
   10.795       67
   10.810       82
   10.825       97
   10.840      111
   10.855      134
   10.870      129
   10.885      125
   10.900       93
   10.915       76
   10.930       69
   10.945       52
   10.960       51
   10.975       44
   10.990       56
   11.005       57
   11.020       66
   11.035       57
   11.050       55
   11.065       57
   11.080       76
   11.095       81
   11.110       70
   11.125       57
   11.140       59
   11.155       70
   11.170       68
   11.185       66
   11.200       67
   11.215       89
   11.230       96
   11.245       98
   11.260       98
   11.275       82
   11.290       61
   11.305       56
   11.320       48
   11.335       53
   11.350       43
   11.365       58
   11.380       61
   11.395       66
   11.410       62
   11.425       69
   11.440       79
   11.455       74
   11.470       52
   11.485       41
   11.500       43
   11.515       37
   11.530       44
   11.545       53
   11.560       46
   11.575       43
   11.590       47
   11.605       46
   11.620       42
   11.635       40
   11.650       58
   11.665       50
   11.680       53
   11.695       64
   11.710       66
   11.725       65
   11.740       61
   11.755       74
   11.770       62
   11.785       59
   11.800       76
   11.815       75
   11.830       63
   11.845       67
   11.860       61
   11.875       79
   11.890       69
   11.905       61
   11.920       52
   11.935       42
   11.950       54
   11.965       49
   11.980       59
   11.995       53
   12.010       49
   12.025       60
   12.040       44
   12.055       57
   12.070       52
   12.085       59
   12.100       59
   12.115       55
   12.130       53
   12.145       37
   12.160       48
   12.175       44
   12.190       46
   12.205       40
   12.220       46
   12.235       47
   12.250       46
   12.265       44
   12.280       48
   12.295       56
   12.310       49
   12.325       43
   12.340       46
   12.355       43
   12.370       51
   12.385       53
   12.400       52
   12.415       52
   12.430       41
   12.445       51
   12.460       71
   12.475       60
   12.490       65
   12.505       72
   12.520       89
   12.535       94
   12.550      111
   12.565      135
   12.580      160
   12.595      165
   12.610      194
   12.625      227
   12.640      340
   12.655      398
   12.670      466
   12.685      484
   12.700      383
   12.715      286
   12.730      256
   12.745      283
   12.760      300
   12.775      321
   12.790      275
   12.805      206
   12.820      143
   12.835       82
   12.850       65
   12.865       58
   12.880       61
   12.895       67
   12.910       61
   12.925       73
   12.940       79
   12.955       98
   12.970      109
   12.985      119
   13.000      107
   13.015      117
   13.030      149
   13.045      231
   13.060      246
   13.075      293
   13.090      270
   13.105      235
   13.120      164
   13.135      139
   13.150      148
   13.165      172
   13.180      232
   13.195      269
   13.210      355
   13.225      472
   13.240      591
   13.255      626
   13.270      572
   13.285      485
   13.300      483
   13.315      571
   13.330      646
   13.345      910
   13.360     1090
   13.375     1186
   13.390     1016
   13.405      677
   13.420      398
   13.435      194
   13.450      121
   13.465      123
   13.480      100
   13.495      119
   13.510      136
   13.525      149
   13.540      155
   13.555      175
   13.570      231
   13.585      274
   13.600      301
   13.615      300
   13.630      309
   13.645      304
   13.660      252
   13.675      162
   13.690      113
   13.705       78
   13.720       58
   13.735       53
   13.750       48
   13.765       55
   13.780       75
   13.795       62
   13.810       64
   13.825       87
   13.840       91
   13.855       99
   13.870      107
   13.885      115
   13.900      124
   13.915       99
   13.930       89
   13.945       59
   13.960       46
   13.975       44
   13.990       43
   14.005       48
   14.020       47
   14.035       63
   14.050       53
   14.065       40
   14.080       49
   14.095       53
   14.110       52
   14.125       56
   14.140       50
   14.155       56
   14.170       51
   14.185       55
   14.200       65
   14.215       61
   14.230       62
   14.245       74
   14.260       83
   14.275       82
   14.290      101
   14.305      103
   14.320      135
   14.335      154
   14.350      143
   14.365      126
   14.380      136
   14.395      147
   14.410      157
   14.425      164
   14.440      172
   14.455      155
   14.470      192
   14.485      202
   14.500      237
   14.515      281
   14.530      332
   14.545      283
   14.560      224
   14.575      163
   14.590       97
   14.605       56
   14.620       53
   14.635       56
   14.650       59
   14.665       43
   14.680       56
   14.695       50
   14.710       41
   14.725       47
   14.740       40
   14.755       44
   14.770       38
   14.785       53
   14.800       48
   14.815       48
   14.830       56
   14.845       43
   14.860       49
   14.875       55
   14.890       51
   14.905       59
   14.920       63
   14.935       81
   14.950       88
   14.965      103
   14.980      139
   14.995      147
   15.010      174
   15.025      228
   15.040      273
   15.055      331
   15.070      384
   15.085      387
   15.100      496
   15.115      613
   15.130      803
   15.145      811
   15.160      639
   15.175      432
   15.190      246
   15.205      148
   15.220      102
   15.235      104
   15.250      102
   15.265       96
   15.280      111
   15.295      130
   15.310      169
   15.325      195
   15.340      211
   15.355      241
   15.370      228
   15.385      182
   15.400      171
   15.415      165
   15.430      160
   15.445      173
   15.460      137
   15.475      105
   15.490       95
   15.505       94
   15.520      104
   15.535      112
   15.550      112
   15.565      138
   15.580      171
   15.595      215
   15.610      246
   15.625      356
   15.640      369
   15.655      342
   15.670      240
   15.685      163
   15.700      119
   15.715       95
   15.730       93
   15.745      114
   15.760      140
   15.775      155
   15.790      189
   15.805      258
   15.820      289
   15.835      289
   15.850      277
   15.865      192
   15.880      113
   15.895       76
   15.910       72
   15.925       55
   15.940       44
   15.955       51
   15.970       58
   15.985       52
   16.000       61
   16.015       70
   16.030       67
   16.045       84
   16.060      103
   16.075      120
   16.090      146
   16.105      161
   16.120      213
   16.135      269
   16.150      324
   16.165      395
   16.180      340
   16.195      275
   16.210      185
   16.225      110
   16.240       78
   16.255       70
   16.270       83
   16.285       87
   16.300       97
   16.315      110
   16.330      150
   16.345      173
   16.360      194
   16.375      202
   16.390      194
   16.405      219
   16.420      214
   16.435      282
   16.450      383
   16.465      445
   16.480      469
   16.495      394
   16.510      259
   16.525      205
   16.540      184
   16.555      202
   16.570      247
   16.585      344
   16.600      388
   16.615      413
   16.630      364
   16.645      266
   16.660      224
   16.675      194
   16.690      186
   16.705      235
   16.720      283
   16.735      379
   16.750      433
   16.765      388
   16.780      342
   16.795      315
   16.810      310
   16.825      318
   16.840      330
   16.855      333
   16.870      313
   16.885      245
   16.900      172
   16.915      129
   16.930      104
   16.945       85
   16.960       83
   16.975       93
   16.990       84
   17.005      112
   17.020      128
   17.035      144
   17.050      167
   17.065      203
   17.080      211
   17.095      202
   17.110      165
   17.125      132
   17.140      108
   17.155      114
   17.170      130
   17.185      157
   17.200      170
   17.215      196
   17.230      228
   17.245      248
   17.260      314
   17.275      351
   17.290      298
   17.305      243
   17.320      179
   17.335      154
   17.350      139
   17.365      124
   17.380      124
   17.395      123
   17.410      113
   17.425      109
   17.440      126
   17.455      132
   17.470      166
   17.485      197
   17.500      234
   17.515      268
   17.530      232
   17.545      183
   17.560      134
   17.575       99
   17.590       78
   17.605       63
   17.620       61
   17.635       72
   17.650       76
   17.665       83
   17.680       90
   17.695      106
   17.710      128
   17.725      121
   17.740       93
   17.755      106
   17.770      116
   17.785      139
   17.800      133
   17.815      116
   17.830      106
   17.845       74
   17.860       61
   17.875       78
   17.890       72
   17.905       65
   17.920       60
   17.935       55
   17.950       53
   17.965       56
   17.980       51
   17.995       51
   18.010       45
   18.025       61
   18.040       53
   18.055       59
   18.070       79
   18.085       71
   18.100       63
   18.115       71
   18.130       78
   18.145       63
   18.160       66
   18.175       70
   18.190       56
   18.205       62
   18.220       76
   18.235       72
   18.250       85
   18.265       75
   18.280      108
   18.295      126
   18.310      155
   18.325      151
   18.340      152
   18.355      165
   18.370      149
   18.385      117
   18.400       86
   18.415       74
   18.430       58
   18.445       54
   18.460       63
   18.475       64
   18.490       54
   18.505       51
   18.520       63
   18.535       69
   18.550       96
   18.565       99
   18.580      116
   18.595      154
   18.610      157
   18.625      173
   18.640      164
   18.655      151
   18.670      148
   18.685      155
   18.700      183
   18.715      199
   18.730      209
   18.745      191
   18.760      171
   18.775      121
   18.790       83
   18.805       80
   18.820       61
   18.835       66
   18.850       65
   18.865       71
   18.880       68
   18.895       92
   18.910       94
   18.925      115
   18.940      124
   18.955      143
   18.970      130
   18.985      124
   19.000      124
   19.015      120
   19.030      123
   19.045      111
   19.060      110
   19.075       70
   19.090       52
   19.105       63
   19.120       60
   19.135       55
   19.150       54
   19.165       43
   19.180       47
   19.195       40
   19.210       44
   19.225       49
   19.240       47
   19.255       37
   19.270       42
   19.285       52
   19.300       48
   19.315       41
   19.330       42
   19.345       40
   19.360       51
   19.375       61
   19.390       45
   19.405       50
   19.420       40
   19.435       36
   19.450       43
   19.465       53
   19.480       53
   19.495       60
   19.510       52
   19.525       63
   19.540       73
   19.555       82
   19.570       70
   19.585       74
   19.600       94
   19.615      118
   19.630      145
   19.645      151
   19.660      169
   19.675      171
   19.690      189
   19.705      164
   19.720      114
   19.735      112
   19.750       85
   19.765       71
   19.780       65
   19.795       92
   19.810       98
   19.825      105
   19.840      105
   19.855      158
   19.870      203
   19.885      232
   19.900      305
   19.915      380
   19.930      439
   19.945      423
   19.960      381
   19.975      293
   19.990      215
   20.005      179
   20.020      143
   20.035      183
   20.050      215
   20.065      231
   20.080      221
   20.095      241
   20.110      235
   20.125      174
   20.140      154
   20.155      118
   20.170       95
   20.185       74
   20.200       73
   20.215       76
   20.230       73
   20.245       72
   20.260       88
   20.275      100
   20.290      103
   20.305       96
   20.320       83
   20.335       55
   20.350       54
   20.365       56
   20.380       51
   20.395       43
   20.410       45
   20.425       44
   20.440       48
   20.455       53
   20.470       41
   20.485       52
   20.500       55
   20.515       40
   20.530       36
   20.545       43
   20.560       50
   20.575       64
   20.590       81
   20.605       69
   20.620       80
   20.635       83
   20.650       76
   20.665       64
   20.680       68
   20.695       58
   20.710       58
   20.725       60
   20.740       66
   20.755       73
   20.770       81
   20.785      125
   20.800      130
   20.815      149
   20.830      196
   20.845      188
   20.860      163
   20.875      181
   20.890      201
   20.905      203
   20.920      222
   20.935      194
   20.950      150
   20.965      117
   20.980       73
   20.995       68
   21.010       56
   21.025       64
   21.040       55
   21.055       72
   21.070       61
   21.085       65
   21.100       50
   21.115       50
   21.130       55
   21.145       55
   21.160       57
   21.175       66
   21.190       65
   21.205       67
   21.220       65
   21.235       79
   21.250       85
   21.265       82
   21.280       92
   21.295       93
   21.310       85
   21.325       74
   21.340       59
   21.355       51
   21.370       55
   21.385       49
   21.400       49
   21.415       50
   21.430       54
   21.445       49
   21.460       51
   21.475       49
   21.490       51
   21.505       52
   21.520       60
   21.535       63
   21.550       72
   21.565       93
   21.580      117
   21.595      153
   21.610      165
   21.625      203
   21.640      217
   21.655      206
   21.670      194
   21.685      176
   21.700      158
   21.715      128
   21.730      139
   21.745      154
   21.760      167
   21.775      209
   21.790      277
   21.805      368
   21.820      460
   21.835      561
   21.850      559
   21.865      470
   21.880      362
   21.895      290
   21.910      165
   21.925      154
   21.940      146
   21.955      147
   21.970      136
   21.985      109
   22.000       99
   22.015       70
   22.030       58
   22.045       52
   22.060       62
   22.075       60
   22.090       52
   22.105       54
   22.120       69
   22.135       68
   22.150       67
   22.165       68
   22.180       60
   22.195       75
   22.210       57
   22.225       70
   22.240       70
   22.255       66
   22.270       66
   22.285       79
   22.300       85
   22.315       86
   22.330       83
   22.345       80
   22.360       76
   22.375       81
   22.390       82
   22.405      101
   22.420      105
   22.435      133
   22.450      129
   22.465      127
   22.480      133
   22.495       95
   22.510       76
   22.525       61
   22.540       55
   22.555       70
   22.570       87
   22.585      127
   22.600      132
   22.615      144
   22.630      160
   22.645      195
   22.660      202
   22.675      205
   22.690      169
   22.705      122
   22.720      111
   22.735       97
   22.750      100
   22.765      103
   22.780      110
   22.795      126
   22.810      141
   22.825      151
   22.840      164
   22.855      197
   22.870      210
   22.885      210
   22.900      200
   22.915      210
   22.930      195
   22.945      148
   22.960      148
   22.975      114
   22.990      100
   23.005       78
   23.020       76
   23.035       84
   23.050       85
   23.065       84
   23.080      100
   23.095      106
   23.110      124
   23.125      122
   23.140       96
   23.155       87
   23.170       84
   23.185       88
   23.200       97
   23.215       97
   23.230      102
   23.245      129
   23.260      121
   23.275      101
   23.290       88
   23.305       89
   23.320       70
   23.335       59
   23.350       55
   23.365       60
   23.380       54
   23.395       52
   23.410       68
   23.425       83
   23.440       96
   23.455       84
   23.470       73
   23.485       63
   23.500       55
   23.515       49
   23.530       44
   23.545       48
   23.560       50
   23.575       51
   23.590       40
   23.605       43
   23.620       50
   23.635       48
   23.650       63
   23.665       53
   23.680       51
   23.695       54
   23.710       54
   23.725       52
   23.740       49
   23.755       44
   23.770       49
   23.785       42
   23.800       43
   23.815       45
   23.830       56
   23.845       65
   23.860       72
   23.875       78
   23.890       63
   23.905       75
   23.920       72
   23.935       59
   23.950       50
   23.965       61
   23.980       80
   23.995       77
   24.010       82
   24.025       86
   24.040      103
   24.055      121
   24.070      124
   24.085      109
   24.100       86
   24.115       73
   24.130       60
   24.145       57
   24.160       53
   24.175       55
   24.190       46
   24.205       58
   24.220       61
   24.235       81
   24.250       87
   24.265       98
   24.280      114
   24.295      130
   24.310      116
   24.325      108
   24.340       81
   24.355       52
   24.370       66
   24.385       53
   24.400       51
   24.415       52
   24.430       59
   24.445       61
   24.460       64
   24.475       59
   24.490       62
   24.505       68
   24.520       64
   24.535       81
   24.550       71
   24.565       75
   24.580       79
   24.595       93
   24.610       89
   24.625       81
   24.640       74
   24.655       71
   24.670       67
   24.685       91
   24.700       88
   24.715       80
   24.730       75
   24.745       76
   24.760       70
   24.775       71
   24.790       79
   24.805       65
   24.820       64
   24.835       60
   24.850       52
   24.865       46
   24.880       54
   24.895       55
   24.910       62
   24.925       54
   24.940       59
   24.955       67
   24.970       86
   24.985      128
   25.000      114
   25.015      136
   25.030      126
   25.045      117
   25.060      101
   25.075       80
   25.090       95
   25.105       88
   25.120       88
   25.135       81
   25.150       68
   25.165       82
   25.180       81
   25.195       95
   25.210      105
   25.225       99
   25.240       87
   25.255       90
   25.270       81
   25.285       76
   25.300       74
   25.315       51
   25.330       47
   25.345       59
   25.360       65
   25.375       56
   25.390       63
   25.405       64
   25.420       79
   25.435      101
   25.450      118
   25.465      112
   25.480      100
   25.495      110
   25.510       85
   25.525       85
   25.540       87
   25.555       69
   25.570       73
   25.585       75
   25.600       76
   25.615       97
   25.630       99
   25.645      115
   25.660      151
   25.675      173
   25.690      226
   25.705      230
   25.720      232
   25.735      206
   25.750      175
   25.765      178
   25.780      137
   25.795       94
   25.810       79
   25.825       74
   25.840       86
   25.855       82
   25.870      111
   25.885      129
   25.900      131
   25.915      149
   25.930      154
   25.945      147
   25.960      117
   25.975       91
   25.990       92
   26.005       85
   26.020       79
   26.035       82
   26.050       83
   26.065       86
   26.080       82
   26.095       80
   26.110       78
   26.125       95
   26.140       92
   26.155      100
   26.170      106
   26.185      126
   26.200      129
   26.215      123
   26.230      107
   26.245       77
   26.260       78
   26.275       57
   26.290       53
   26.305       68
   26.320       75
   26.335       66
   26.350       66
   26.365       60
   26.380       72
   26.395       80
   26.410       78
   26.425       81
   26.440       76
   26.455       84
   26.470       60
   26.485       51
   26.500       49
   26.515       47
   26.530       47
   26.545       43
   26.560       43
   26.575       46
   26.590       47
   26.605       56
   26.620       68
   26.635       74
   26.650       92
   26.665       90
   26.680      109
   26.695      114
   26.710       88
   26.725       72
   26.740       72
   26.755       67
   26.770       60
   26.785       47
   26.800       53
   26.815       68
   26.830       65
   26.845       67
   26.860       88
   26.875       78
   26.890      106
   26.905      128
   26.920      153
   26.935      192
   26.950      198
   26.965      199
   26.980      190
   26.995      194
   27.010      171
   27.025      187
   27.040      185
   27.055      157
   27.070      136
   27.085      115
   27.100       82
   27.115       73
   27.130       74
   27.145       69
   27.160       67
   27.175       64
   27.190       77
   27.205       78
   27.220       74
   27.235       74
   27.250       81
   27.265       79
   27.280       82
   27.295       82
   27.310       71
   27.325       82
   27.340       68
   27.355       65
   27.370       59
   27.385       83
   27.400       77
   27.415       82
   27.430       82
   27.445       88
   27.460       96
   27.475      107
   27.490       98
   27.505      124
   27.520      125
   27.535      148
   27.550      159
   27.565      149
   27.580      131
   27.595      168
   27.610      182
   27.625      176
   27.640      183
   27.655      189
   27.670      188
   27.685      177
   27.700      153
   27.715      163
   27.730      133
   27.745      139
   27.760      136
   27.775      109
   27.790       71
   27.805       94
   27.820       82
   27.835       79
   27.850       83
   27.865       91
   27.880      103
   27.895      119
   27.910      113
   27.925      130
   27.940      122
   27.955      110
   27.970      111
   27.985       92
   28.000       82
   28.015       66
   28.030       54
   28.045       60
   28.060       62
   28.075       54
   28.090       54
   28.105       72
   28.120       72
   28.135       68
   28.150       70
   28.165       72
   28.180       83
   28.195       88
   28.210       87
   28.225       88
   28.240       90
   28.255       86
   28.270       80
   28.285       83
   28.300       95
   28.315      102
   28.330       93
   28.345       93
   28.360      102
   28.375      102
   28.390       89
   28.405       92
   28.420       89
   28.435       92
   28.450       96
   28.465       96
   28.480       89
   28.495      102
   28.510       71
   28.525       66
   28.540       65
   28.555       64
   28.570       57
   28.585       41
   28.600       41
   28.615       47
   28.630       59
   28.645       53
   28.660       50
   28.675       56
   28.690       68
   28.705       90
   28.720       73
   28.735       86
   28.750       90
   28.765       80
   28.780       89
   28.795       74
   28.810       67
   28.825       71
   28.840       66
   28.855       52
   28.870       65
   28.885       74
   28.900      100
   28.915       91
   28.930       98
   28.945      105
   28.960      112
   28.975      117
   28.990      128
   29.005      121
   29.020      106
   29.035       99
   29.050       94
   29.065      106
   29.080      104
   29.095      116
   29.110      117
   29.125      125
   29.140      115
   29.155      114
   29.170      102
   29.185      104
   29.200      102
   29.215       83
   29.230       71
   29.245       86
   29.260       89
   29.275       85
   29.290       84
   29.305       75
   29.320       74
   29.335       78
   29.350       77
   29.365       63
   29.380       55
   29.395       71
   29.410       60
   29.425       49
   29.440       53
   29.455       59
   29.470       68
   29.485       76
   29.500       73
   29.515       73
   29.530       82
   29.545       81
   29.560       95
   29.575      100
   29.590       90
   29.605       92
   29.620      101
   29.635       94
   29.650       83
   29.665      100
   29.680      120
   29.695      149
   29.710      148
   29.725      150
   29.740      131
   29.755      124
   29.770      102
   29.785      103
   29.800       89
   29.815       80
   29.830       77
   29.845       73
   29.860       71
   29.875       59
   29.890       71
   29.905       67
   29.920       69
   29.935       74
   29.950       67
   29.965       75
   29.980       51
   29.995       49
   30.010       57
   30.025       57
   30.040       62
   30.055       53
   30.070       70
   30.085       61
   30.100       64
   30.115       58
   30.130       54
   30.145       61
   30.160       56
   30.175       46
   30.190       52
   30.205       48
   30.220       43
   30.235       61
   30.250       56
   30.265       53
   30.280       60
   30.295       63
   30.310       64
   30.325       65
   30.340       74
   30.355       69
   30.370       64
   30.385       68
   30.400       59
   30.415       56
   30.430       77
   30.445       78
   30.460       71
   30.475       60
   30.490       58
   30.505       67
   30.520       70
   30.535       67
   30.550       88
   30.565       78
   30.580       80
   30.595       85
   30.610       95
   30.625       96
   30.640      107
   30.655      113
   30.670      103
   30.685       94
   30.700       84
   30.715       71
   30.730       64
   30.745       60
   30.760       52
   30.775       53
   30.790       54
   30.805       55
   30.820       50
   30.835       50
   30.850       40
   30.865       49
   30.880       61
   30.895       63
   30.910       58
   30.925       64
   30.940       76
   30.955       91
   30.970       90
   30.985      111
   31.000       97
   31.015      119
   31.030       98
   31.045      100
   31.060      120
   31.075       95
   31.090       90
   31.105       74
   31.120       82
   31.135       79
   31.150       72
   31.165       80
   31.180       68
   31.195       78
   31.210       85
   31.225       76
   31.240       70
   31.255       73
   31.270       71
   31.285       64
   31.300       69
   31.315       64
   31.330       56
   31.345       64
   31.360       77
   31.375       79
   31.390       97
   31.405      112
   31.420      108
   31.435      105
   31.450       97
   31.465       77
   31.480       78
   31.495       71
   31.510       60
   31.525       75
   31.540       89
   31.555       95
   31.570       94
   31.585      106
   31.600      102
   31.615      111
   31.630      101
   31.645       97
   31.660       86
   31.675       79
   31.690       73
   31.705       89
   31.720       87
   31.735       83
   31.750      100
   31.765      122
   31.780      110
   31.795       95
   31.810      108
   31.825       87
   31.840       82
   31.855       90
   31.870       98
   31.885      116
   31.900       99
   31.915      113
   31.930      115
   31.945      108
   31.960      116
   31.975      102
   31.990       96
   32.005       88
   32.020       86
   32.035       78
   32.050       80
   32.065       79
   32.080       77
   32.095       77
   32.110       81
   32.125       96
   32.140       92
   32.155       97
   32.170       95
   32.185       85
   32.200       88
   32.215       93
   32.230       80
   32.245       58
   32.260       59
   32.275       52
   32.290       55
   32.305       53
   32.320       49
   32.335       65
   32.350       73
   32.365       62
   32.380       61
   32.395       57
   32.410       57
   32.425       65
   32.440       72
   32.455       70
   32.470       73
   32.485       81
   32.500       67
   32.515       65
   32.530       60
   32.545       54
   32.560       53
   32.575       58
   32.590       63
   32.605       44
   32.620       51
   32.635       56
   32.650       64
   32.665       59
   32.680       51
   32.695       58
   32.710       52
   32.725       61
   32.740       73
   32.755       61
   32.770       46
   32.785       49
   32.800       48
   32.815       52
   32.830       57
   32.845       58
   32.860       49
   32.875       59
   32.890       51
   32.905       52
   32.920       54
   32.935       82
   32.950       98
   32.965       97
   32.980      102
   32.995      115
   33.010      115
   33.025      105
   33.040       98
   33.055      103
   33.070       86
   33.085       76
   33.100       91
   33.115       68
   33.130       66
   33.145       61
   33.160       78
   33.175       60
   33.190       70
   33.205       62
   33.220       67
   33.235       62
   33.250       56
   33.265       61
   33.280       72
   33.295       66
   33.310       60
   33.325       64
   33.340       58
   33.355       58
   33.370       71
   33.385       75
   33.400       75
   33.415       73
   33.430       70
   33.445       73
   33.460       79
   33.475       97
   33.490      104
   33.505      112
   33.520      126
   33.535      120
   33.550      112
   33.565      106
   33.580       97
   33.595       98
   33.610      110
   33.625      118
   33.640      100
   33.655       95
   33.670       93
   33.685       89
   33.700       82
   33.715       88
   33.730       71
   33.745       79
   33.760       78
   33.775       73
   33.790       79
   33.805       96
   33.820       98
   33.835      111
   33.850      120
   33.865      114
   33.880      142
   33.895      126
   33.910      113
   33.925       94
   33.940       81
   33.955       85
   33.970       61
   33.985       73
   34.000       82
   34.015       79
   34.030       81
   34.045       95
   34.060      100
   34.075       88
   34.090      112
   34.105      104
   34.120       97
   34.135       70
   34.150       70
   34.165       82
   34.180       84
   34.195       80
   34.210       66
   34.225       69
   34.240       75
   34.255       70
   34.270       69
   34.285       67
   34.300       74
   34.315       65
   34.330       59
   34.345       66
   34.360       53
   34.375       66
   34.390       56
   34.405       49
   34.420       62
   34.435       66
   34.450       60
   34.465       69
   34.480       72
   34.495       79
   34.510       89
   34.525       95
   34.540       86
   34.555       98
   34.570       95
   34.585       88
   34.600       77
   34.615       86
   34.630       87
   34.645       70
   34.660       69
   34.675       69
   34.690       61
   34.705       62
   34.720       56
   34.735       49
   34.750       53
   34.765       62
   34.780       73
   34.795       71
   34.810       75
   34.825       70
   34.840       63
   34.855       64
   34.870       63
   34.885       68
   34.900       76
   34.915       72
   34.930       61
   34.945       69
   34.960       77
   34.975       73
   34.990       71
   35.005       62
   35.020       62
   35.035       55
   35.050       61
   35.065       69
   35.080       85
   35.095       79
   35.110       66
   35.125       84
   35.140       86
   35.155       84
   35.170       83
   35.185       64
   35.200       84
   35.215       79
   35.230       72
   35.245       83
   35.260       76
   35.275       75
   35.290       96
   35.305       99
   35.320       86
   35.335       99
   35.350      106
   35.365      106
   35.380      112
   35.395      105
   35.410      111
   35.425      121
   35.440      123
   35.455      111
   35.470      129
   35.485      132
   35.500      129
   35.515      130
   35.530      116
   35.545      112
   35.560       95
   35.575       99
   35.590      119
   35.605       99
   35.620      116
   35.635      150
   35.650      141
   35.665      137
   35.680      127
   35.695      113
   35.710      105
   35.725       93
   35.740      109
   35.755       92
   35.770       77
   35.785       78
   35.800       70
   35.815       73
   35.830       71
   35.845       52
   35.860       60
   35.875       56
   35.890       65
   35.905       45
   35.920       53
   35.935       50
   35.950       57
   35.965       55
   35.980       59
   35.995       65
   36.010       61
   36.025       71
   36.040       58
   36.055       59
   36.070       66
   36.085       64
   36.100       62
   36.115       66
   36.130       54
   36.145       61
   36.160       58
   36.175       66
   36.190       56
   36.205       61
   36.220       61
   36.235       65
   36.250       61
   36.265       76
   36.280       79
   36.295       68
   36.310       73
   36.325       78
   36.340       80
   36.355       79
   36.370       77
   36.385       72
   36.400       72
   36.415       51
   36.430       52
   36.445       59
   36.460       60
   36.475       61
   36.490       64
   36.505       65
   36.520       62
   36.535       63
   36.550       54
   36.565       56
   36.580       63
   36.595       62
   36.610       56
   36.625       70
   36.640       71
   36.655       60
   36.670       67
   36.685       80
   36.700       69
   36.715       60
   36.730       52
   36.745       72
   36.760       75
   36.775       83
   36.790       92
   36.805       84
   36.820       81
   36.835       78
   36.850       77
   36.865       77
   36.880       76
   36.895       70
   36.910       67
   36.925       57
   36.940       66
   36.955       68
   36.970       64
   36.985       72
   37.000       84
   37.015       78
   37.030       70
   37.045       67
   37.060       78
   37.075       71
   37.090       80
   37.105       83
   37.120       81
   37.135       84
   37.150       85
   37.165       85
   37.180       84
   37.195       79
   37.210       66
   37.225       68
   37.240       78
   37.255       72
   37.270       81
   37.285       79
   37.300       83
   37.315       96
   37.330       93
   37.345       68
   37.360       88
   37.375       77
   37.390       79
   37.405       61
   37.420       63
   37.435       62
   37.450       51
   37.465       59
   37.480       54
   37.495       55
   37.510       61
   37.525       55
   37.540       53
   37.555       49
   37.570       65
   37.585       65
   37.600       58
   37.615       54
   37.630       59
   37.645       51
   37.660       59
   37.675       60
   37.690       56
   37.705       67
   37.720       67
   37.735       62
   37.750       67
   37.765       62
   37.780       64
   37.795       60
   37.810       54
   37.825       59
   37.840       70
   37.855       61
   37.870       55
   37.885       65
   37.900       60
   37.915       65
   37.930       60
   37.945       56
   37.960       61
   37.975       51
   37.990       55
   38.005       66
   38.020       66
   38.035       71
   38.050       63
   38.065       79
   38.080       71
   38.095       73
   38.110       60
   38.125       61
   38.140       62
   38.155       60
   38.170       54
   38.185       49
   38.200       50
   38.215       55
   38.230       60
   38.245       60
   38.260       74
   38.275       73
   38.290       63
   38.305       56
   38.320       57
   38.335       59
   38.350       52
   38.365       67
   38.380       63
   38.395       67
   38.410       76
   38.425       89
   38.440       92
   38.455       97
   38.470      111
   38.485      104
   38.500       87
   38.515       83
   38.530       66
   38.545       77
   38.560       76
   38.575       70
   38.590       72
   38.605       64
   38.620       68
   38.635       75
   38.650       67
   38.665       75
   38.680       67
   38.695       79
   38.710       80
   38.725       82
   38.740       83
   38.755       64
   38.770       82
   38.785       82
   38.800       58
   38.815       62
   38.830       69
   38.845       60
   38.860       60
   38.875       65
   38.890       65
   38.905       81
   38.920       74
   38.935       68
   38.950       78
   38.965       80
   38.980       67
   38.995       69
   39.010       74
   39.025       83
   39.040       73
   39.055       70
   39.070       75
   39.085       62
   39.100       65
   39.115       61
   39.130       62
   39.145       48
   39.160       55
   39.175       50
   39.190       67
   39.205       62
   39.220       74
   39.235       75
   39.250       54
   39.265       56
   39.280       54
   39.295       48
   39.310       69
   39.325       58
   39.340       58
   39.355       71
   39.370       67
   39.385       65
   39.400       52
   39.415       49
   39.430       49
   39.445       52
   39.460       56
   39.475       57
   39.490       59
   39.505       59
   39.520       56
   39.535       50
   39.550       56
   39.565       64
   39.580       50
   39.595       49
   39.610       55
   39.625       53
   39.640       55
   39.655       61
   39.670       55
   39.685       63
   39.700       59
   39.715       65
   39.730       79
   39.745       73
   39.760       65
   39.775       62
   39.790       64
   39.805       78
   39.820       65
   39.835       70
   39.850       65
   39.865       75
   39.880       64
   39.895       92
   39.910       78
   39.925       77
   39.940       71
   39.955       72
   39.970       76
   39.985       73
   40.000       63
   40.015       77
   40.030       63
   40.045       60
   40.060       64
   40.075       58
   40.090       64
   40.105       60
   40.120       56
   40.135       54
   40.150       61
   40.165       52
   40.180       57
   40.195       72
   40.210       48
   40.225       48
   40.240       62
   40.255       45
   40.270       63
   40.285       55
   40.300       71
   40.315       63
   40.330       52
   40.345       57
   40.360       74
   40.375       56
   40.390       54
   40.405       57
   40.420       72
   40.435       69
   40.450       84
   40.465       75
   40.480       70
   40.495       72
   40.510       77
   40.525       84
   40.540       99
   40.555       82
   40.570       87
   40.585       86
   40.600       72
   40.615       81
   40.630       79
   40.645       67
   40.660       65
   40.675       64
   40.690       61
   40.705       64
   40.720       62
   40.735       59
   40.750       71
   40.765       68
   40.780       64
   40.795       84
   40.810       76
   40.825       87
   40.840       89
   40.855       89
   40.870       78
   40.885       84
   40.900       79
   40.915       79
   40.930       86
   40.945       78
   40.960       67
   40.975       56
   40.990       57
   41.005       54
   41.020       61
   41.035       47
   41.050       53
   41.065       63
   41.080       63
   41.095       72
   41.110       61
   41.125       49
   41.140       54
   41.155       66
   41.170       66
   41.185       62
   41.200       54
   41.215       52
   41.230       52
   41.245       60
   41.260       60
   41.275       54
   41.290       63
   41.305       63
   41.320       60
   41.335       51
   41.350       48
   41.365       47
   41.380       50
   41.395       52
   41.410       47
   41.425       53
   41.440       58
   41.455       58
   41.470       46
   41.485       49
   41.500       54
   41.515       62
   41.530       73
   41.545       62
   41.560       48
   41.575       64
   41.590       51
   41.605       46
   41.620       62
   41.635       51
   41.650       58
   41.665       48
   41.680       53
   41.695       47
   41.710       50
   41.725       49
   41.740       61
   41.755       62
   41.770       63
   41.785       63
   41.800       67
   41.815       68
   41.830       69
   41.845       78
   41.860       70
   41.875       66
   41.890       60
   41.905       57
   41.920       46
   41.935       58
   41.950       60
   41.965       46
   41.980       53
   41.995       51
   42.010       49
   42.025       58
   42.040       64
   42.055       60
   42.070       67
   42.085       66
   42.100       67
   42.115       60
   42.130       46
   42.145       64
   42.160       62
   42.175       61
   42.190       70
   42.205       65
   42.220       68
   42.235       68
   42.250       74
   42.265       64
   42.280       61
   42.295       68
   42.310       60
   42.325       68
   42.340       68
   42.355       62
   42.370       77
   42.385       74
   42.400       79
   42.415       66
   42.430       70
   42.445       61
   42.460       62
   42.475       65
   42.490       65
   42.505       64
   42.520       66
   42.535       65
   42.550       63
   42.565       75
   42.580       75
   42.595       67
   42.610       45
   42.625       54
   42.640       60
   42.655       56
   42.670       45
   42.685       44
   42.700       55
   42.715       46
   42.730       48
   42.745       45
   42.760       47
   42.775       40
   42.790       52
   42.805       52
   42.820       55
   42.835       62
   42.850       50
   42.865       62
   42.880       56
   42.895       54
   42.910       61
   42.925       41
   42.940       50
   42.955       62
   42.970       54
   42.985       69
   43.000       60
   43.015       49
   43.030       49
   43.045       50
   43.060       44
   43.075       52
   43.090       67
   43.105       50
   43.120       53
   43.135       59
   43.150       66
   43.165       64
   43.180       73
   43.195       63
   43.210       55
   43.225       53
   43.240       57
   43.255       69
   43.270       66
   43.285       56
   43.300       54
   43.315       54
   43.330       47
   43.345       56
   43.360       56
   43.375       54
   43.390       50
   43.405       48
   43.420       40
   43.435       57
   43.450       57
   43.465       57
   43.480       48
   43.495       47
   43.510       42
   43.525       59
   43.540       60
   43.555       58
   43.570       69
   43.585       47
   43.600       48
   43.615       47
   43.630       49
   43.645       53
   43.660       42
   43.675       41
   43.690       57
   43.705       57
   43.720       51
   43.735       50
   43.750       49
   43.765       47
   43.780       61
   43.795       60
   43.810       52
   43.825       55
   43.840       60
   43.855       51
   43.870       52
   43.885       62
   43.900       56
   43.915       61
   43.930       56
   43.945       52
   43.960       55
   43.975       59
   43.990       57
   44.005       60
   44.020       62
   44.035       63
   44.050       59
   44.065       57
   44.080       61
   44.095       60
   44.110       66
   44.125       62
   44.140       69
   44.155       63
   44.170       67
   44.185       74
   44.200       71
   44.215       76
   44.230       71
   44.245       70
   44.260       71
   44.275       69
   44.290       66
   44.305       70
   44.320       70
   44.335       72
   44.350       67
   44.365       62
   44.380       69
   44.395       53
   44.410       65
   44.425       56
   44.440       62
   44.455       55
   44.470       72
   44.485       57
   44.500       57
   44.515       57
   44.530       63
   44.545       66
   44.560       74
   44.575       73
   44.590       61
   44.605       56
   44.620       69
   44.635       57
   44.650       50
   44.665       60
   44.680       45
   44.695       63
   44.710       56
   44.725       66
   44.740       57
   44.755       62
   44.770       74
   44.785       81
   44.800       87
   44.815       90
   44.830       69
   44.845       77
   44.860       77
   44.875       59
   44.890       63
   44.905       65
   44.920       67
   44.935       51
   44.950       54
   44.965       51
   44.980       58
   44.995       65
   45.010       59
   45.025       70
   45.040       76
   45.055       74
   45.070       76
   45.085       82
   45.100       91
   45.115       78
   45.130       77
   45.145       76
   45.160       77
   45.175       87
   45.190       69
   45.205       75
   45.220       59
   45.235       77
   45.250       85
   45.265       83
   45.280       60
   45.295       57
   45.310       67
   45.325       64
   45.340       61
   45.355       50
   45.370       56
   45.385       60
   45.400       68
   45.415       57
   45.430       59
   45.445       61
   45.460       59
   45.475       55
   45.490       56
   45.505       51
   45.520       54
   45.535       52
   45.550       66
   45.565       76
   45.580       59
   45.595       70
   45.610       62
   45.625       61
   45.640       69
   45.655       61
   45.670       58
   45.685       67
   45.700       58
   45.715       65
   45.730       72
   45.745       49
   45.760       41
   45.775       42
   45.790       53
   45.805       48
   45.820       57
   45.835       51
   45.850       60
   45.865       40
   45.880       54
   45.895       66
   45.910       57
   45.925       48
   45.940       45
   45.955       40
   45.970       53
   45.985       46
