    4.000       35
    4.015       44
    4.030       47
    4.045       55
    4.060       54
    4.075       49
    4.090       59
    4.105       51
    4.120       45
    4.135       49
    4.150       59
    4.165       53
    4.180       56
    4.195       53
    4.210       56
    4.225       67
    4.240       61
    4.255       55
    4.270       52
    4.285       46
    4.300       40
    4.315       57
    4.330       44
    4.345       56
    4.360       59
    4.375       58
    4.390       50
    4.405       55
    4.420       51
    4.435       59
    4.450       44
    4.465       51
    4.480       50
    4.495       44
    4.510       64
    4.525       55
    4.540       44
    4.555       39
    4.570       57
    4.585       49
    4.600       53
    4.615       42
    4.630       58
    4.645       58
    4.660       56
    4.675       54
    4.690       46
    4.705       47
    4.720       47
    4.735       48
    4.750       49
    4.765       54
    4.780       48
    4.795       40
    4.810       49
    4.825       46
    4.840       52
    4.855       44
    4.870       43
    4.885       57
    4.900       54
    4.915       62
    4.930       56
    4.945       57
    4.960       54
    4.975       60
    4.990       48
    5.005       59
    5.020       58
    5.035       50
    5.050       51
    5.065       60
    5.080       54
    5.095       53
    5.110       41
    5.125       53
    5.140       59
    5.155       50
    5.170       50
    5.185       49
    5.200       41
    5.215       53
    5.230       42
    5.245       41
    5.260       50
    5.275       46
    5.290       59
    5.305       55
    5.320       39
    5.335       44
    5.350       50
    5.365       46
    5.380       42
    5.395       42
    5.410       38
    5.425       45
    5.440       42
    5.455       45
    5.470       47
    5.485       55
    5.500       54
    5.515       49
    5.530       47
    5.545       49
    5.560       57
    5.575       55
    5.590       49
    5.605       52
    5.620       44
    5.635       42
    5.650       52
    5.665       54
    5.680       51
    5.695       49
    5.710       41
    5.725       44
    5.740       45
    5.755       42
    5.770       34
    5.785       50
    5.800       46
    5.815       42
    5.830       42
    5.845       49
    5.860       54
    5.875       48
    5.890       40
    5.905       51
    5.920       60
    5.935       61
    5.950       54
    5.965       53
    5.980       43
    5.995       40
    6.010       48
    6.025       48
    6.040       52
    6.055       58
    6.070       52
    6.085       51
    6.100       42
    6.115       44
    6.130       50
    6.145       43
    6.160       46
    6.175       50
    6.190       45
    6.205       52
    6.220       46
    6.235       56
    6.250       61
    6.265       55
    6.280       50
    6.295       52
    6.310       63
    6.325       64
    6.340       66
    6.355       62
    6.370       68
    6.385       65
    6.400       76
    6.415       80
    6.430       84
    6.445       94
    6.460       99
    6.475      108
    6.490      109
    6.505      117
    6.520      117
    6.535      110
    6.550      110
    6.565      157
    6.580      197
    6.595      215
    6.610      208
    6.625      196
    6.640      217
    6.655      216
    6.670      211
    6.685      157
    6.700       98
    6.715       70
    6.730       51
    6.745       50
    6.760       50
    6.775       44
    6.790       47
    6.805       52
    6.820       48
    6.835       47
    6.850       45
    6.865       41
    6.880       46
    6.895       52
    6.910       43
    6.925       44
    6.940       61
    6.955       54
    6.970       46
    6.985       60
    7.000       53
    7.015       44
    7.030       57
    7.045       60
    7.060       57
    7.075       52
    7.090       57
    7.105       72
    7.120       70
    7.135       62
    7.150       99
    7.165       93
    7.180      110
    7.195      107
    7.210       74
    7.225       68
    7.240       53
    7.255       44
    7.270       57
    7.285       52
    7.300       37
    7.315       46
    7.330       45
    7.345       43
    7.360       43
    7.375       45
    7.390       45
    7.405       42
    7.420       47
    7.435       45
    7.450       41
    7.465       49
    7.480       34
    7.495       44
    7.510       50
    7.525       37
    7.540       48
    7.555       51
    7.570       39
    7.585       43
    7.600       48
    7.615       46
    7.630       48
    7.645       50
    7.660       41
    7.675       43
    7.690       51
    7.705       47
    7.720       59
    7.735       45
    7.750       51
    7.765       45
    7.780       39
    7.795       29
    7.810       39
    7.825       42
    7.840       40
    7.855       51
    7.870       55
    7.885       41
    7.900       40
    7.915       49
    7.930       54
    7.945       45
    7.960       38
    7.975       38
    7.990       41
    8.005       38
    8.020       52
    8.035       48
    8.050       39
    8.065       41
    8.080       43
    8.095       42
    8.110       43
    8.125       49
    8.140       46
    8.155       49
    8.170       52
    8.185       56
    8.200       51
    8.215       54
    8.230       51
    8.245       46
    8.260       54
    8.275       46
    8.290       50
    8.305       42
    8.320       51
    8.335       42
    8.350       42
    8.365       46
    8.380       45
    8.395       45
    8.410       46
    8.425       52
    8.440       45
    8.455       43
    8.470       39
    8.485       41
    8.500       50
    8.515       44
    8.530       42
    8.545       49
    8.560       44
    8.575       44
    8.590       57
    8.605       57
    8.620       51
    8.635       46
    8.650       43
    8.665       31
    8.680       32
    8.695       33
    8.710       38
    8.725       35
    8.740       41
    8.755       55
    8.770       45
    8.785       39
    8.800       49
    8.815       44
    8.830       40
    8.845       34
    8.860       36
    8.875       32
    8.890       40
    8.905       52
    8.920       46
    8.935       53
    8.950       37
    8.965       47
    8.980       45
    8.995       37
    9.010       36
    9.025       39
    9.040       40
    9.055       44
    9.070       47
    9.085       49
    9.100       42
    9.115       47
    9.130       60
    9.145       40
    9.160       32
    9.175       43
    9.190       41
    9.205       45
    9.220       43
    9.235       41
    9.250       45
    9.265       51
    9.280       39
    9.295       45
    9.310       41
    9.325       51
    9.340       44
    9.355       57
    9.370       54
    9.385       51
    9.400       50
    9.415       50
    9.430       52
    9.445       57
    9.460       37
    9.475       47
    9.490       39
    9.505       51
    9.520       51
    9.535       48
    9.550       47
    9.565       43
    9.580       54
    9.595       46
    9.610       57
    9.625       57
    9.640       45
    9.655       49
    9.670       54
    9.685       61
    9.700       53
    9.715       46
    9.730       56
    9.745       58
    9.760       50
    9.775       62
    9.790       66
    9.805       61
    9.820       66
    9.835       53
    9.850       33
    9.865       47
    9.880       41
    9.895       47
    9.910       47
    9.925       37
    9.940       42
    9.955       47
    9.970       43
    9.985       41
   10.000       45
   10.015       40
   10.030       47
   10.045       49
   10.060       52
   10.075       48
   10.090       42
   10.105       48
   10.120       54
   10.135       51
   10.150       41
   10.165       40
   10.180       50
   10.195       56
   10.210       48
   10.225       57
   10.240       71
   10.255       55
   10.270       58
   10.285       63
   10.300       57
   10.315       63
   10.330       71
   10.345       66
   10.360       73
   10.375       87
   10.390       89
   10.405       88
   10.420       99
   10.435      101
   10.450      100
   10.465       97
   10.480      105
   10.495       80
   10.510       61
   10.525       44
   10.540       51
   10.555       59
   10.570       55
   10.585       46
   10.600       43
   10.615       49
   10.630       51
   10.645       46
   10.660       50
   10.675       52
   10.690       63
   10.705       69
   10.720       54
   10.735       57
   10.750       80
   10.765       79
   10.780       78
   10.795       69
   10.810       97
   10.825      113
   10.840      135
   10.855      137
   10.870      129
   10.885      111
   10.900       87
   10.915       59
   10.930       58
   10.945       55
   10.960       49
   10.975       46
   10.990       45
   11.005       46
   11.020       54
   11.035       56
   11.050       75
   11.065       74
   11.080       67
   11.095       63
   11.110       65
   11.125       67
   11.140       65
   11.155       65
   11.170       70
   11.185       75
   11.200       85
   11.215       95
   11.230      116
   11.245      116
   11.260      103
   11.275       73
   11.290       61
   11.305       46
   11.320       48
   11.335       55
   11.350       62
   11.365       54
   11.380       47
   11.395       57
   11.410       61
   11.425       72
   11.440       72
   11.455       56
   11.470       50
   11.485       48
   11.500       43
   11.515       43
   11.530       47
   11.545       50
   11.560       42
   11.575       52
   11.590       54
   11.605       41
   11.620       51
   11.635       41
   11.650       44
   11.665       38
   11.680       42
   11.695       55
   11.710       56
   11.725       61
   11.740       62
   11.755       65
   11.770       58
   11.785       69
   11.800       65
   11.815       63
   11.830       57
   11.845       58
   11.860       70
   11.875       69
   11.890       77
   11.905       69
   11.920       41
   11.935       48
   11.950       52
   11.965       62
   11.980       51
   11.995       51
   12.010       57
   12.025       55
   12.040       73
   12.055       73
   12.070       80
   12.085       66
   12.100       49
   12.115       51
   12.130       42
   12.145       47
   12.160       50
   12.175       49
   12.190       40
   12.205       48
   12.220       39
   12.235       38
   12.250       43
   12.265       50
   12.280       45
   12.295       35
   12.310       35
   12.325       41
   12.340       40
   12.355       42
   12.370       42
   12.385       51
   12.400       65
   12.415       49
   12.430       56
   12.445       53
   12.460       59
   12.475       66
   12.490       73
   12.505       95
   12.520      100
   12.535      110
   12.550      119
   12.565      156
   12.580      168
   12.595      184
   12.610      207
   12.625      249
   12.640      349
   12.655      454
   12.670      438
   12.685      424
   12.700      313
   12.715      249
   12.730      248
   12.745      289
   12.760      309
   12.775      263
   12.790      206
   12.805      152
   12.820      111
   12.835       78
   12.850       70
   12.865       52
   12.880       59
   12.895       70
   12.910       71
   12.925       72
   12.940       83
   12.955       89
   12.970       95
   12.985      110
   13.000      113
   13.015      135
   13.030      190
   13.045      233
   13.060      273
   13.075      254
   13.090      203
   13.105      187
   13.120      171
   13.135      143
   13.150      170
   13.165      202
   13.180      267
   13.195      338
   13.210      436
   13.225      600
   13.240      621
   13.255      589
   13.270      501
   13.285      494
   13.300      482
   13.315      583
   13.330      751
   13.345      999
   13.360     1229
   13.375     1094
   13.390      779
   13.405      457
   13.420      225
   13.435      143
   13.450      107
   13.465      119
   13.480      119
   13.495      125
   13.510      154
   13.525      140
   13.540      176
   13.555      226
   13.570      250
   13.585      253
   13.600      273
   13.615      277
   13.630      303
   13.645      249
   13.660      184
   13.675      125
   13.690       83
   13.705       65
   13.720       53
   13.735       66
   13.750       55
   13.765       63
   13.780       64
   13.795       74
   13.810       73
   13.825       81
   13.840       94
   13.855      121
   13.870      116
   13.885      102
   13.900       81
   13.915       64
   13.930       64
   13.945       53
   13.960       60
   13.975       57
   13.990       53
   14.005       59
   14.020       48
   14.035       47
   14.050       50
   14.065       56
   14.080       56
   14.095       53
   14.110       53
   14.125       55
   14.140       51
   14.155       56
   14.170       56
   14.185       61
   14.200       58
   14.215       66
   14.230       67
   14.245       69
   14.260       80
   14.275       98
   14.290      113
   14.305      129
   14.320      155
   14.335      153
   14.350      143
   14.365      140
   14.380      155
   14.395      140
   14.410      165
   14.425      177
   14.440      182
   14.455      159
   14.470      186
   14.485      187
   14.500      251
   14.515      321
   14.530      314
   14.545      286
   14.560      216
   14.575      144
   14.590       92
   14.605       72
   14.620       79
   14.635       69
   14.650       53
   14.665       51
   14.680       63
   14.695       49
   14.710       53
   14.725       44
   14.740       51
   14.755       49
   14.770       40
   14.785       47
   14.800       52
   14.815       60
   14.830       63
   14.845       47
   14.860       53
   14.875       60
   14.890       65
   14.905       64
   14.920       78
   14.935       82
   14.950      107
   14.965      122
   14.980      151
   14.995      195
   15.010      228
   15.025      258
   15.040      290
   15.055      351
   15.070      409
   15.085      464
   15.100      556
   15.115      723
   15.130      787
   15.145      682
   15.160      457
   15.175      302
   15.190      165
   15.205      125
   15.220      106
   15.235      116
   15.250      103
   15.265      129
   15.280      126
   15.295      153
   15.310      185
   15.325      216
   15.340      223
   15.355      229
   15.370      220
   15.385      171
   15.400      163
   15.415      179
   15.430      161
   15.445      142
   15.460      104
   15.475      103
   15.490       99
   15.505      108
   15.520      110
   15.535      129
   15.550      153
   15.565      157
   15.580      198
   15.595      244
   15.610      294
   15.625      353
   15.640      366
   15.655      285
   15.670      168
   15.685      130
   15.700      111
   15.715      110
   15.730      109
   15.745      142
   15.760      164
   15.775      206
   15.790      246
   15.805      271
   15.820      280
   15.835      231
   15.850      178
   15.865      139
   15.880       80
   15.895       67
   15.910       63
   15.925       61
   15.940       56
   15.955       67
   15.970       59
   15.985       74
   16.000       68
   16.015       89
   16.030      103
   16.045       96
   16.060      111
   16.075      158
   16.090      171
   16.105      215
   16.120      276
   16.135      312
   16.150      358
   16.165      343
   16.180      331
   16.195      249
   16.210      138
   16.225       96
   16.240       82
   16.255       76
   16.270       95
   16.285       92
   16.300      118
   16.315      150
   16.330      173
   16.345      191
   16.360      192
   16.375      198
   16.390      191
   16.405      217
   16.420      244
   16.435      319
   16.450      422
   16.465      458
   16.480      384
   16.495      319
   16.510      217
   16.525      214
   16.540      200
   16.555      236
   16.570      308
   16.585      358
   16.600      395
   16.615      336
   16.630      275
   16.645      222
   16.660      196
   16.675      184
   16.690      222
   16.705      280
   16.720      333
   16.735      369
   16.750      381
   16.765      333
   16.780      320
   16.795      272
   16.810      296
   16.825      291
   16.840      308
   16.855      284
   16.870      239
   16.885      183
   16.900      131
   16.915       85
   16.930       73
   16.945       89
   16.960       86
   16.975       93
   16.990      109
   17.005      130
   17.020      153
   17.035      171
   17.050      199
   17.065      196
   17.080      194
   17.095      176
   17.110      142
   17.125      113
   17.140      114
   17.155      123
   17.170      115
   17.185      141
   17.200      176
   17.215      200
   17.230      244
   17.245      289
   17.260      312
   17.275      321
   17.290      273
   17.305      186
   17.320      145
   17.335      111
   17.350      133
   17.365      139
   17.380      122
   17.395      111
   17.410       94
   17.425      105
   17.440      111
   17.455      148
   17.470      152
   17.485      221
   17.500      273
   17.515      244
   17.530      193
   17.545      139
   17.560       95
   17.575       78
   17.590       76
   17.605       66
   17.620       74
   17.635       74
   17.650       76
   17.665       87
   17.680      106
   17.695      121
   17.710      133
   17.725      113
   17.740      107
   17.755       85
   17.770      111
   17.785      123
   17.800      106
   17.815       94
   17.830       69
   17.845       81
   17.860       83
   17.875       78
   17.890       76
   17.905       71
   17.920       68
   17.935       72
   17.950       72
   17.965       62
   17.980       51
   17.995       59
   18.010       64
   18.025       59
   18.040       67
   18.055       62
   18.070       71
   18.085       67
   18.100       65
   18.115       72
   18.130       73
   18.145       72
   18.160       67
   18.175       69
   18.190       72
   18.205       64
   18.220       75
   18.235       91
   18.250      109
   18.265      117
   18.280      130
   18.295      145
   18.310      130
   18.325      142
   18.340      153
   18.355      157
   18.370      131
   18.385       96
   18.400       73
   18.415       55
   18.430       70
   18.445       66
   18.460       66
   18.475       69
   18.490       72
   18.505       74
   18.520       71
   18.535       75
   18.550       84
   18.565      108
   18.580      132
   18.595      163
   18.610      187
   18.625      165
   18.640      136
   18.655      136
   18.670      145
   18.685      168
   18.700      199
   18.715      201
   18.730      202
   18.745      174
   18.760      135
   18.775      127
   18.790      102
   18.805       86
   18.820       71
   18.835       70
   18.850       62
   18.865       75
   18.880       83
   18.895      102
   18.910      117
   18.925      135
   18.940      153
   18.955      142
   18.970      127
   18.985      118
   19.000      116
   19.015      120
   19.030      125
   19.045       94
   19.060       89
   19.075       72
   19.090       56
   19.105       55
   19.120       51
   19.135       54
   19.150       51
   19.165       56
   19.180       47
   19.195       65
   19.210       55
   19.225       47
   19.240       56
   19.255       52
   19.270       49
   19.285       52
   19.300       53
   19.315       61
   19.330       41
   19.345       57
   19.360       56
   19.375       40
   19.390       54
   19.405       54
   19.420       52
   19.435       43
   19.450       48
   19.465       49
   19.480       50
   19.495       46
   19.510       57
   19.525       56
   19.540       63
   19.555       82
   19.570       92
   19.585      105
   19.600      128
   19.615      124
   19.630      150
   19.645      172
   19.660      188
   19.675      174
   19.690      150
   19.705      143
   19.720      117
   19.735       73
   19.750       77
   19.765       77
   19.780       69
   19.795       84
   19.810      102
   19.825      109
   19.840      148
   19.855      185
   19.870      217
   19.885      274
   19.900      353
   19.915      421
   19.930      459
   19.945      395
   19.960      283
   19.975      230
   19.990      172
   20.005      150
   20.020      179
   20.035      203
   20.050      235
   20.065      258
   20.080      239
   20.095      200
   20.110      167
   20.125      130
   20.140      114
   20.155       99
   20.170       81
   20.185       75
   20.200       78
   20.215       75
   20.230       87
   20.245      102
   20.260      104
   20.275      111
   20.290      100
   20.305       91
   20.320       76
   20.335       70
   20.350       53
   20.365       56
   20.380       50
   20.395       45
   20.410       48
   20.425       45
   20.440       51
   20.455       54
   20.470       45
   20.485       48
   20.500       50
   20.515       56
   20.530       48
   20.545       68
   20.560       55
   20.575       61
   20.590       70
   20.605       79
   20.620       77
   20.635       83
   20.650       79
   20.665       62
   20.680       57
   20.695       49
   20.710       65
   20.725       65
   20.740       85
   20.755      107
   20.770       97
   20.785      122
   20.800      140
   20.815      173
   20.830      174
   20.845      170
   20.860      165
   20.875      183
   20.890      198
   20.905      206
   20.920      205
   20.935      147
   20.950      113
   20.965       89
   20.980       74
   20.995       58
   21.010       66
   21.025       60
   21.040       71
   21.055       76
   21.070       62
   21.085       56
   21.100       57
   21.115       62
   21.130       61
   21.145       76
   21.160       73
   21.175       70
   21.190       65
   21.205       69
   21.220       70
   21.235       86
   21.250      113
   21.265      106
   21.280      101
   21.295       95
   21.310       78
   21.325       61
   21.340       62
   21.355       55
   21.370       49
   21.385       45
   21.400       52
   21.415       50
   21.430       56
   21.445       48
   21.460       58
   21.475       64
   21.490       52
   21.505       61
   21.520       57
   21.535       66
   21.550       81
   21.565      108
   21.580      144
   21.595      163
   21.610      192
   21.625      211
   21.640      198
   21.655      189
   21.670      180
   21.685      139
   21.700      140
   21.715      125
   21.730      141
   21.745      168
   21.760      188
   21.775      264
   21.790      332
   21.805      442
   21.820      539
   21.835      543
   21.850      483
   21.865      351
   21.880      236
   21.895      191
   21.910      150
   21.925      122
   21.940      128
   21.955      110
   21.970       97
   21.985       82
   22.000       84
   22.015       62
   22.030       59
   22.045       62
   22.060       56
   22.075       54
   22.090       69
   22.105       46
   22.120       51
   22.135       59
   22.150       74
   22.165       64
   22.180       68
   22.195       66
   22.210       63
   22.225       65
   22.240       67
   22.255       71
   22.270       73
   22.285       89
   22.300       94
   22.315      106
   22.330      102
   22.345       76
   22.360       75
   22.375       90
   22.390      101
   22.405      121
   22.420      130
   22.435      140
   22.450      143
   22.465      117
   22.480       96
   22.495       77
   22.510       68
   22.525       67
   22.540       89
   22.555      118
   22.570      124
   22.585      130
   22.600      139
   22.615      166
   22.630      177
   22.645      194
   22.660      194
   22.675      158
   22.690      124
   22.705       93
   22.720       95
   22.735      111
   22.750       97
   22.765      104
   22.780      119
   22.795      135
   22.810      149
   22.825      169
   22.840      205
   22.855      210
   22.870      214
   22.885      222
   22.900      192
   22.915      176
   22.930      144
   22.945      127
   22.960      124
   22.975      100
   22.990       88
   23.005       74
   23.020       73
   23.035       76
   23.050       76
   23.065       86
   23.080      102
   23.095       98
   23.110       97
   23.125      111
   23.140       91
   23.155       84
   23.170       96
   23.185       95
   23.200      106
   23.215      116
   23.230      130
   23.245      121
   23.260      104
   23.275       87
   23.290       61
   23.305       60
   23.320       52
   23.335       54
   23.350       58
   23.365       66
   23.380       72
   23.395       68
   23.410       72
   23.425       93
   23.440       86
   23.455       80
   23.470       64
   23.485       58
   23.500       47
   23.515       52
   23.530       51
   23.545       48
   23.560       57
   23.575       55
   23.590       57
   23.605       44
   23.620       53
   23.635       62
   23.650       62
   23.665       60
   23.680       44
   23.695       53
   23.710       52
   23.725       55
   23.740       43
   23.755       57
   23.770       50
   23.785       53
   23.800       53
   23.815       51
   23.830       65
   23.845       76
   23.860       74
   23.875       68
   23.890       58
   23.905       75
   23.920       78
   23.935       74
   23.950       67
   23.965       61
   23.980       78
   23.995       97
   24.010      107
   24.025      115
   24.040      109
   24.055      105
   24.070      109
   24.085       69
   24.100       55
   24.115       62
   24.130       54
   24.145       63
   24.160       57
   24.175       52
   24.190       67
   24.205       80
   24.220       83
   24.235      105
   24.250      113
   24.265      127
   24.280      127
   24.295      113
   24.310       92
   24.325       64
   24.340       70
   24.355       61
   24.370       58
   24.385       53
   24.400       56
   24.415       58
   24.430       58
   24.445       72
   24.460       66
   24.475       63
   24.490       68
   24.505       81
   24.520       79
   24.535       82
   24.550       77
   24.565       72
   24.580       79
   24.595       79
   24.610       81
   24.625       88
   24.640       91
   24.655       84
   24.670      103
   24.685       86
   24.700       68
   24.715       66
   24.730       70
   24.745       80
   24.760       77
   24.775       80
   24.790       86
   24.805       75
   24.820       63
   24.835       55
   24.850       52
   24.865       55
   24.880       52
   24.895       60
   24.910       65
   24.925       71
   24.940       81
   24.955      100
   24.970      106
   24.985      112
   25.000      128
   25.015      127
   25.030      114
   25.045       96
   25.060       96
   25.075       82
   25.090       88
   25.105       79
   25.120       89
   25.135       83
   25.150       92
   25.165       82
   25.180       97
   25.195      100
   25.210       99
   25.225       99
   25.240       85
   25.255       78
   25.270       68
   25.285       65
   25.300       52
   25.315       55
   25.330       54
   25.345       51
   25.360       61
   25.375       78
   25.390       81
   25.405      101
   25.420      101
   25.435      112
   25.450      113
   25.465      118
   25.480      102
   25.495       92
   25.510       90
   25.525       75
   25.540       84
   25.555       72
   25.570       73
   25.585       84
   25.600       95
   25.615      101
   25.630      128
   25.645      138
   25.660      167
   25.675      173
   25.690      219
   25.705      237
   25.720      219
   25.735      188
   25.750      147
   25.765      125
   25.780      102
   25.795       91
   25.810       83
   25.825       97
   25.840       95
   25.855      112
   25.870      131
   25.885      150
   25.900      141
   25.915      159
   25.930      134
   25.945      108
   25.960      106
   25.975       88
   25.990       68
   26.005       70
   26.020       70
   26.035       86
   26.050       77
   26.065       77
   26.080       76
   26.095       78
   26.110       91
   26.125       91
   26.140      108
   26.155      108
   26.170      118
   26.185      111
   26.200      105
   26.215       94
   26.230       82
   26.245       65
   26.260       72
   26.275       67
   26.290       61
   26.305       60
   26.320       63
   26.335       75
   26.350       74
   26.365       66
   26.380       74
   26.395       79
   26.410       77
   26.425       75
   26.440       59
   26.455       60
   26.470       49
   26.485       47
   26.500       40
   26.515       54
   26.530       53
   26.545       45
   26.560       57
   26.575       52
   26.590       62
   26.605       69
   26.620       79
   26.635       94
   26.650       93
   26.665      113
   26.680      106
   26.695       90
   26.710       84
   26.725       86
   26.740       62
   26.755       60
   26.770       72
   26.785       82
   26.800       72
   26.815       62
   26.830       79
   26.845       81
   26.860       89
   26.875      112
   26.890      138
   26.905      159
   26.920      178
   26.935      184
   26.950      181
   26.965      183
   26.980      167
   26.995      151
   27.010      160
   27.025      160
   27.040      162
   27.055      111
   27.070       97
   27.085       88
   27.100       69
   27.115       69
   27.130       79
   27.145       65
   27.160       69
   27.175       68
   27.190       68
   27.205       67
   27.220       75
   27.235       78
   27.250       90
   27.265       90
   27.280       89
   27.295       68
   27.310       68
   27.325       79
   27.340       89
   27.355       77
   27.370       84
   27.385       84
   27.400       77
   27.415       69
   27.430       77
   27.445       80
   27.460       99
   27.475      102
   27.490      109
   27.505      112
   27.520      112
   27.535      141
   27.550      148
   27.565      152
   27.580      155
   27.595      164
   27.610      147
   27.625      161
   27.640      187
   27.655      184
   27.670      172
   27.685      158
   27.700      147
   27.715      121
   27.730      125
   27.745       97
   27.760       99
   27.775       94
   27.790       80
   27.805       97
   27.820      108
   27.835       98
   27.850       93
   27.865      120
   27.880      116
   27.895      123
   27.910      137
   27.925      133
   27.940      111
   27.955       89
   27.970       87
   27.985       81
   28.000       67
   28.015       61
   28.030       76
   28.045       61
   28.060       61
   28.075       61
   28.090       60
   28.105       59
   28.120       79
   28.135       86
   28.150      100
   28.165      102
   28.180       88
   28.195       81
   28.210       94
   28.225       95
   28.240       84
   28.255       99
   28.270       94
   28.285       89
   28.300       86
   28.315       99
   28.330      101
   28.345       94
   28.360       94
   28.375      104
   28.390       91
   28.405       91
   28.420       98
   28.435      102
   28.450      104
   28.465       94
   28.480       81
   28.495       67
   28.510       72
   28.525       59
   28.540       46
   28.555       46
   28.570       55
   28.585       50
   28.600       55
   28.615       56
   28.630       74
   28.645       66
   28.660       84
   28.675       78
   28.690       71
   28.705       80
   28.720       83
   28.735       80
   28.750       83
   28.765       77
   28.780       65
   28.795       73
   28.810       72
   28.825       73
   28.840       83
   28.855       78
   28.870       86
   28.885       90
   28.900       94
   28.915      103
   28.930       98
   28.945       95
   28.960      106
   28.975      103
   28.990      102
   29.005      111
   29.020      105
   29.035      108
   29.050       98
   29.065       96
   29.080      104
   29.095      125
   29.110      109
   29.125       97
   29.140       96
   29.155       94
   29.170       90
   29.185       90
   29.200       81
   29.215       80
   29.230       88
   29.245       90
   29.260       87
   29.275       88
   29.290       74
   29.305       64
   29.320       67
   29.335       75
   29.350       77
   29.365       66
   29.380       78
   29.395       63
   29.410       55
   29.425       57
   29.440       58
   29.455       68
   29.470       72
   29.485       77
   29.500       76
   29.515       89
   29.530       97
   29.545       92
   29.560      100
   29.575      107
   29.590      103
   29.605       86
   29.620       76
   29.635       99
   29.650      115
   29.665      112
   29.680      130
   29.695      164
   29.710      148
   29.725      142
   29.740      125
   29.755      107
   29.770      100
   29.785       87
   29.800       90
   29.815       83
   29.830       71
   29.845       69
   29.860       78
   29.875       84
   29.890       90
   29.905       78
   29.920       72
   29.935       79
   29.950       71
   29.965       62
   29.980       67
   29.995       63
   30.010       58
   30.025       64
   30.040       64
   30.055       68
   30.070       61
   30.085       62
   30.100       64
   30.115       61
   30.130       62
   30.145       61
   30.160       64
   30.175       56
   30.190       60
   30.205       43
   30.220       54
   30.235       52
   30.250       58
   30.265       59
   30.280       68
   30.295       65
   30.310       72
   30.325       61
   30.340       55
   30.355       59
   30.370       57
   30.385       77
   30.400       65
   30.415       68
   30.430       66
   30.445       74
   30.460       75
   30.475       79
   30.490       74
   30.505       80
   30.520       84
   30.535       79
   30.550       69
   30.565       90
   30.580       98
   30.595      102
   30.610       99
   30.625      111
   30.640      127
   30.655      116
   30.670      102
   30.685      100
   30.700       76
   30.715       67
   30.730       75
   30.745       73
   30.760       51
   30.775       53
   30.790       57
   30.805       50
   30.820       64
   30.835       70
   30.850       63
   30.865       70
   30.880       81
   30.895       76
   30.910       75
   30.925       79
   30.940       94
   30.955      103
   30.970      100
   30.985      118
   31.000      116
   31.015      109
   31.030      100
   31.045       97
   31.060       78
   31.075       93
   31.090       73
   31.105       80
   31.120       83
   31.135       64
   31.150       76
   31.165       85
   31.180       76
   31.195       73
   31.210       62
   31.225       76
   31.240       75
   31.255       80
   31.270       75
   31.285       72
   31.300       71
   31.315       71
   31.330       65
   31.345       72
   31.360       77
   31.375       76
   31.390      103
   31.405       86
   31.420       96
   31.435       97
   31.450       68
   31.465       79
   31.480       79
   31.495       76
   31.510       72
   31.525       62
   31.540       68
   31.555       94
   31.570      101
   31.585       93
   31.600       94
   31.615       97
   31.630       93
   31.645       88
   31.660       96
   31.675       85
   31.690       77
   31.705       85
   31.720       95
   31.735       90
   31.750       90
   31.765       97
   31.780       90
   31.795       91
   31.810      106
   31.825       82
   31.840       87
   31.855       98
   31.870      115
   31.885      113
   31.900      111
   31.915      121
   31.930      115
   31.945       86
   31.960       77
   31.975       97
   31.990      100
   32.005       84
   32.020       64
   32.035       80
   32.050       79
   32.065       68
   32.080       77
   32.095       83
   32.110       76
   32.125       90
   32.140       90
   32.155       90
   32.170       96
   32.185       86
   32.200       80
   32.215       76
   32.230       58
   32.245       56
   32.260       68
   32.275       68
   32.290       59
   32.305       54
   32.320       63
   32.335       58
   32.350       62
   32.365       66
   32.380       66
   32.395       78
   32.410       72
   32.425       76
   32.440       66
   32.455       76
   32.470       78
   32.485       62
   32.500       66
   32.515       64
   32.530       62
   32.545       62
   32.560       59
   32.575       64
   32.590       62
   32.605       56
   32.620       56
   32.635       47
   32.650       57
   32.665       63
   32.680       67
   32.695       62
   32.710       57
   32.725       53
   32.740       53
   32.755       58
   32.770       68
   32.785       46
   32.800       63
   32.815       63
   32.830       55
   32.845       55
   32.860       60
   32.875       60
   32.890       62
   32.905       77
   32.920       81
   32.935       75
   32.950       80
   32.965       90
   32.980      110
   32.995       94
   33.010      114
   33.025      104
   33.040      113
   33.055       88
   33.070       89
   33.085       73
   33.100       71
   33.115       60
   33.130       67
   33.145       63
   33.160       74
   33.175       76
   33.190       83
   33.205       77
   33.220       73
   33.235       62
   33.250       68
   33.265       65
   33.280       68
   33.295       67
   33.310       73
   33.325       75
   33.340       68
   33.355       67
   33.370       79
   33.385       67
   33.400       84
   33.415       86
   33.430       81
   33.445       87
   33.460       98
   33.475       98
   33.490      104
   33.505      112
   33.520      119
   33.535      120
   33.550      106
   33.565      102
   33.580      106
   33.595      101
   33.610       96
   33.625       96
   33.640       87
   33.655       90
   33.670       95
   33.685       82
   33.700       74
   33.715       71
   33.730       78
   33.745       89
   33.760       64
   33.775       76
   33.790       88
   33.805      109
   33.820      121
   33.835      117
   33.850      120
   33.865      114
   33.880      114
   33.895       96
   33.910       92
   33.925       82
   33.940       74
   33.955       68
   33.970       90
   33.985       87
   34.000      102
   34.015      100
   34.030       96
   34.045      106
   34.060      101
   34.075       91
   34.090       92
   34.105       88
   34.120       92
   34.135       92
   34.150       86
   34.165       67
   34.180       75
   34.195       63
   34.210       73
   34.225       56
   34.240       72
   34.255       58
   34.270       63
   34.285       66
   34.300       51
   34.315       57
   34.330       56
   34.345       72
   34.360       57
   34.375       73
   34.390       60
   34.405       54
   34.420       68
   34.435       77
   34.450       75
   34.465       77
   34.480       88
   34.495       88
   34.510       93
   34.525       79
   34.540       85
   34.555       85
   34.570       88
   34.585       87
   34.600       73
   34.615       62
   34.630       56
   34.645       60
   34.660       62
   34.675       57
   34.690       57
   34.705       63
   34.720       53
   34.735       60
   34.750       59
   34.765       76
   34.780       82
   34.795       79
   34.810       68
   34.825       68
   34.840       71
   34.855       64
   34.870       64
   34.885       70
   34.900       86
   34.915       83
   34.930       81
   34.945       61
   34.960       67
   34.975       68
   34.990       65
   35.005       64
   35.020       62
   35.035       65
   35.050       75
   35.065       74
   35.080       77
   35.095       86
   35.110       80
   35.125       84
   35.140       86
   35.155       84
   35.170       81
   35.185       70
   35.200       78
   35.215       77
   35.230       74
   35.245       82
   35.260       87
   35.275       77
   35.290       80
   35.305       97
   35.320      106
   35.335       97
   35.350       95
   35.365       96
   35.380      100
   35.395      104
   35.410       95
   35.425      126
   35.440      128
   35.455      129
   35.470      121
   35.485      121
   35.500      118
   35.515      106
   35.530      117
   35.545      120
   35.560      117
   35.575      110
   35.590      111
   35.605      120
   35.620      113
   35.635      122
   35.650      107
   35.665      113
   35.680      102
   35.695      103
   35.710      101
   35.725       81
   35.740       85
   35.755       93
   35.770       74
   35.785       72
   35.800       67
   35.815       56
   35.830       67
   35.845       48
   35.860       56
   35.875       60
   35.890       64
   35.905       69
   35.920       59
   35.935       53
   35.950       62
   35.965       63
   35.980       57
   35.995       56
   36.010       61
   36.025       62
   36.040       69
   36.055       67
   36.070       72
   36.085       47
   36.100       57
   36.115       61
   36.130       60
   36.145       67
   36.160       74
   36.175       63
   36.190       63
   36.205       61
   36.220       64
   36.235       76
   36.250       68
   36.265       66
   36.280       75
   36.295       77
   36.310       76
   36.325       77
   36.340       76
   36.355       71
   36.370       76
   36.385       72
   36.400       62
   36.415       56
   36.430       58
   36.445       47
   36.460       59
   36.475       45
   36.490       60
   36.505       65
   36.520       62
   36.535       62
   36.550       55
   36.565       51
   36.580       62
   36.595       78
   36.610       67
   36.625       69
   36.640       64
   36.655       67
   36.670       54
   36.685       55
   36.700       65
   36.715       71
   36.730       72
   36.745       83
   36.760       98
   36.775       90
   36.790       94
   36.805       93
   36.820       96
   36.835       68
   36.850       73
   36.865       79
   36.880       65
   36.895       59
   36.910       65
   36.925       65
   36.940       68
   36.955       65
   36.970       69
   36.985       55
   37.000       66
   37.015       55
   37.030       67
   37.045       70
   37.060       59
   37.075       79
   37.090       80
   37.105       88
   37.120       80
   37.135       79
   37.150       77
   37.165       65
   37.180       78
   37.195       78
   37.210       63
   37.225       69
   37.240       67
   37.255       64
   37.270       72
   37.285       91
   37.300       99
   37.315       86
   37.330       85
   37.345       77
   37.360       71
   37.375       70
   37.390       64
   37.405       65
   37.420       63
   37.435       69
   37.450       64
   37.465       59
   37.480       48
   37.495       60
   37.510       57
   37.525       54
   37.540       51
   37.555       59
   37.570       54
   37.585       57
   37.600       64
   37.615       65
   37.630       60
   37.645       55
   37.660       66
   37.675       60
   37.690       69
   37.705       74
   37.720       75
   37.735       63
   37.750       57
   37.765       62
   37.780       59
   37.795       69
   37.810       66
   37.825       67
   37.840       59
   37.855       65
   37.870       56
   37.885       66
   37.900       71
   37.915       60
   37.930       58
   37.945       72
   37.960       64
   37.975       61
   37.990       75
   38.005       72
   38.020       65
   38.035       77
   38.050       81
   38.065       70
   38.080       60
   38.095       71
   38.110       70
   38.125       57
   38.140       54
   38.155       58
   38.170       48
   38.185       53
   38.200       61
   38.215       75
   38.230       70
   38.245       65
   38.260       63
   38.275       67
   38.290       69
   38.305       64
   38.320       57
   38.335       71
   38.350       70
   38.365       72
   38.380       76
   38.395       85
   38.410       95
   38.425       89
   38.440       90
   38.455       88
   38.470       89
   38.485       81
   38.500       78
   38.515       77
   38.530       69
   38.545       69
   38.560       69
   38.575       76
   38.590       62
   38.605       65
   38.620       68
   38.635       66
   38.650       82
   38.665       81
   38.680       73
   38.695       77
   38.710       57
   38.725       82
   38.740       71
   38.755       75
   38.770       58
   38.785       55
   38.800       53
   38.815       54
   38.830       65
   38.845       72
   38.860       72
   38.875       69
   38.890       77
   38.905       67
   38.920       71
   38.935       73
   38.950       81
   38.965       69
   38.980       67
   38.995       76
   39.010       68
   39.025       67
   39.040       69
   39.055       69
   39.070       64
   39.085       62
   39.100       72
   39.115       57
   39.130       53
   39.145       61
   39.160       60
   39.175       66
   39.190       56
   39.205       68
   39.220       66
   39.235       61
   39.250       70
   39.265       53
   39.280       48
   39.295       65
   39.310       69
   39.325       62
   39.340       63
   39.355       56
   39.370       59
   39.385       53
   39.400       59
   39.415       55
   39.430       50
   39.445       49
   39.460       61
   39.475       44
   39.490       56
   39.505       57
   39.520       57
   39.535       52
   39.550       61
   39.565       62
   39.580       76
   39.595       60
   39.610       53
   39.625       54
   39.640       50
   39.655       69
   39.670       67
   39.685       65
   39.700       65
   39.715       54
   39.730       71
   39.745       73
   39.760       59
   39.775       65
   39.790       65
   39.805       68
   39.820       67
   39.835       69
   39.850       75
   39.865       76
   39.880       67
   39.895       79
   39.910       86
   39.925       82
   39.940       69
   39.955       67
   39.970       62
   39.985       66
   40.000       58
   40.015       54
   40.030       58
   40.045       60
   40.060       76
   40.075       51
   40.090       57
   40.105       69
   40.120       70
   40.135       68
   40.150       59
   40.165       56
   40.180       53
   40.195       57
   40.210       61
   40.225       61
   40.240       53
   40.255       59
   40.270       58
   40.285       58
   40.300       66
   40.315       53
   40.330       58
   40.345       62
   40.360       56
   40.375       50
   40.390       69
   40.405       62
   40.420       73
   40.435       60
   40.450       69
   40.465       68
   40.480       85
   40.495       77
   40.510       90
   40.525       70
   40.540       72
   40.555       68
   40.570       67
   40.585       68
   40.600       74
   40.615       78
   40.630       72
   40.645       52
   40.660       56
   40.675       62
   40.690       66
   40.705       66
   40.720       71
   40.735       68
   40.750       79
   40.765       80
   40.780       78
   40.795       77
   40.810       89
   40.825       87
   40.840       92
   40.855       81
   40.870       86
   40.885       79
   40.900       80
   40.915       75
   40.930       80
   40.945       76
   40.960       70
   40.975       64
   40.990       52
   41.005       55
   41.020       54
   41.035       55
   41.050       55
   41.065       49
   41.080       52
   41.095       51
   41.110       59
   41.125       63
   41.140       59
   41.155       47
   41.170       58
   41.185       61
   41.200       60
   41.215       57
   41.230       65
   41.245       56
   41.260       58
   41.275       61
   41.290       61
   41.305       68
   41.320       58
   41.335       41
   41.350       48
   41.365       49
   41.380       39
   41.395       54
   41.410       57
   41.425       40
   41.440       53
   41.455       44
   41.470       47
   41.485       60
   41.500       66
   41.515       71
   41.530       70
   41.545       61
   41.560       61
   41.575       66
   41.590       51
   41.605       49
   41.620       54
   41.635       59
   41.650       64
   41.665       61
   41.680       60
   41.695       64
   41.710       58
   41.725       50
   41.740       54
   41.755       62
   41.770       54
   41.785       59
   41.800       61
   41.815       55
   41.830       65
   41.845       61
   41.860       63
   41.875       64
   41.890       55
   41.905       67
   41.920       54
   41.935       56
   41.950       60
   41.965       64
   41.980       64
   41.995       58
   42.010       59
   42.025       57
   42.040       78
   42.055       63
   42.070       59
   42.085       55
   42.100       59
   42.115       67
   42.130       61
   42.145       64
   42.160       63
   42.175       60
   42.190       59
   42.205       60
   42.220       68
   42.235       56
   42.250       57
   42.265       49
   42.280       55
   42.295       56
   42.310       66
   42.325       64
   42.340       67
   42.355       75
   42.370       77
   42.385       67
   42.400       73
   42.415       68
   42.430       71
   42.445       56
   42.460       56
   42.475       70
   42.490       66
   42.505       56
   42.520       63
   42.535       71
   42.550       63
   42.565       61
   42.580       66
   42.595       56
   42.610       60
   42.625       66
   42.640       58
   42.655       57
   42.670       53
   42.685       55
   42.700       53
   42.715       51
   42.730       47
   42.745       46
   42.760       49
   42.775       51
   42.790       59
   42.805       50
   42.820       52
   42.835       55
   42.850       55
   42.865       58
   42.880       49
   42.895       57
   42.910       58
   42.925       52
   42.940       52
   42.955       43
   42.970       51
   42.985       54
   43.000       54
   43.015       51
   43.030       58
   43.045       62
   43.060       52
   43.075       52
   43.090       57
   43.105       50
   43.120       53
   43.135       62
   43.150       46
   43.165       58
   43.180       62
   43.195       56
   43.210       68
   43.225       58
   43.240       71
   43.255       46
   43.270       62
   43.285       71
   43.300       60
   43.315       60
   43.330       59
   43.345       54
   43.360       60
   43.375       55
   43.390       58
   43.405       50
   43.420       62
   43.435       63
   43.450       67
   43.465       62
   43.480       51
   43.495       57
   43.510       55
   43.525       49
   43.540       53
   43.555       44
   43.570       51
   43.585       49
   43.600       45
   43.615       43
   43.630       51
   43.645       53
   43.660       55
   43.675       58
   43.690       64
   43.705       53
   43.720       56
   43.735       58
   43.750       59
   43.765       64
   43.780       69
   43.795       53
   43.810       58
   43.825       55
   43.840       54
   43.855       54
   43.870       58
   43.885       56
   43.900       49
   43.915       50
   43.930       54
   43.945       54
   43.960       58
   43.975       48
   43.990       55
   44.005       64
   44.020       57
   44.035       58
   44.050       67
   44.065       58
   44.080       64
   44.095       59
   44.110       60
   44.125       61
   44.140       54
   44.155       55
   44.170       62
   44.185       68
   44.200       64
   44.215       61
   44.230       70
   44.245       72
   44.260       59
   44.275       71
   44.290       67
   44.305       55
   44.320       63
   44.335       58
   44.350       66
   44.365       74
   44.380       62
   44.395       64
   44.410       50
   44.425       50
   44.440       58
   44.455       54
   44.470       46
   44.485       64
   44.500       72
   44.515       72
   44.530       71
   44.545       69
   44.560       66
   44.575       71
   44.590       63
   44.605       67
   44.620       55
   44.635       54
   44.650       67
   44.665       59
   44.680       56
   44.695       70
   44.710       62
   44.725       77
   44.740       66
   44.755       55
   44.770       75
   44.785       66
   44.800       71
   44.815       79
   44.830       52
   44.845       42
   44.860       57
   44.875       65
   44.890       60
   44.905       57
   44.920       58
   44.935       65
   44.950       63
   44.965       66
   44.980       60
   44.995       68
   45.010       56
   45.025       67
   45.040       65
   45.055       78
   45.070       68
   45.085       69
   45.100       67
   45.115       70
   45.130       84
   45.145       83
   45.160       77
   45.175       78
   45.190       85
   45.205       78
   45.220       59
   45.235       61
   45.250       67
   45.265       70
   45.280       67
   45.295       58
   45.310       70
   45.325       71
   45.340       53
   45.355       64
   45.370       67
   45.385       63
   45.400       53
   45.415       48
   45.430       52
   45.445       47
   45.460       62
   45.475       68
   45.490       68
   45.505       62
   45.520       67
   45.535       69
   45.550       61
   45.565       54
   45.580       74
   45.595       72
   45.610       70
   45.625       60
   45.640       68
   45.655       55
   45.670       55
   45.685       62
   45.700       59
   45.715       59
   45.730       42
   45.745       46
   45.760       52
   45.775       44
   45.790       54
   45.805       55
   45.820       58
   45.835       54
   45.850       60
   45.865       59
   45.880       60
   45.895       53
   45.910       51
   45.925       62
   45.940       66
   45.955       52
   45.970       70
   45.985       62
