    4.000       52
    4.015       58
    4.030       56
    4.045       54
    4.060       45
    4.075       56
    4.090       44
    4.105       55
    4.120       41
    4.135       50
    4.150       54
    4.165       49
    4.180       63
    4.195       55
    4.210       45
    4.225       57
    4.240       50
    4.255       44
    4.270       51
    4.285       52
    4.300       51
    4.315       56
    4.330       62
    4.345       48
    4.360       60
    4.375       53
    4.390       56
    4.405       49
    4.420       53
    4.435       59
    4.450       48
    4.465       59
    4.480       61
    4.495       50
    4.510       43
    4.525       47
    4.540       46
    4.555       52
    4.570       56
    4.585       46
    4.600       50
    4.615       50
    4.630       59
    4.645       54
    4.660       52
    4.675       47
    4.690       41
    4.705       42
    4.720       43
    4.735       42
    4.750       43
    4.765       47
    4.780       51
    4.795       45
    4.810       49
    4.825       57
    4.840       49
    4.855       45
    4.870       60
    4.885       61
    4.900       51
    4.915       46
    4.930       39
    4.945       42
    4.960       50
    4.975       57
    4.990       53
    5.005       56
    5.020       51
    5.035       46
    5.050       42
    5.065       42
    5.080       46
    5.095       48
    5.110       50
    5.125       46
    5.140       45
    5.155       45
    5.170       54
    5.185       45
    5.200       43
    5.215       48
    5.230       52
    5.245       49
    5.260       52
    5.275       46
    5.290       41
    5.305       46
    5.320       52
    5.335       57
    5.350       52
    5.365       53
    5.380       48
    5.395       44
    5.410       52
    5.425       55
    5.440       59
    5.455       43
    5.470       49
    5.485       55
    5.500       49
    5.515       43
    5.530       42
    5.545       48
    5.560       52
    5.575       40
    5.590       60
    5.605       57
    5.620       41
    5.635       39
    5.650       43
    5.665       59
    5.680       45
    5.695       48
    5.710       50
    5.725       59
    5.740       49
    5.755       50
    5.770       42
    5.785       62
    5.800       36
    5.815       52
    5.830       42
    5.845       51
    5.860       56
    5.875       49
    5.890       51
    5.905       57
    5.920       51
    5.935       48
    5.950       54
    5.965       40
    5.980       39
    5.995       51
    6.010       52
    6.025       63
    6.040       49
    6.055       46
    6.070       49
    6.085       50
    6.100       51
    6.115       50
    6.130       52
    6.145       49
    6.160       49
    6.175       45
    6.190       43
    6.205       47
    6.220       53
    6.235       51
    6.250       64
    6.265       61
    6.280       61
    6.295       58
    6.310       66
    6.325       56
    6.340       65
    6.355       70
    6.370       73
    6.385       65
    6.400       57
    6.415       79
    6.430       75
    6.445       67
    6.460       94
    6.475      107
    6.490      126
    6.505       94
    6.520      104
    6.535      128
    6.550      154
    6.565      181
    6.580      210
    6.595      198
    6.610      188
    6.625      191
    6.640      186
    6.655      167
    6.670      109
    6.685       78
    6.700       57
    6.715       44
    6.730       46
    6.745       53
    6.760       42
    6.775       38
    6.790       51
    6.805       47
    6.820       40
    6.835       54
    6.850       48
    6.865       51
    6.880       45
    6.895       46
    6.910       43
    6.925       46
    6.940       48
    6.955       54
    6.970       44
    6.985       52
    7.000       64
    7.015       55
    7.030       56
    7.045       54
    7.060       65
    7.075       73
    7.090       63
    7.105       69
    7.120       75
    7.135       85
    7.150       90
    7.165       94
    7.180       75
    7.195       60
    7.210       45
    7.225       51
    7.240       45
    7.255       51
    7.270       39
    7.285       40
    7.300       47
    7.315       46
    7.330       41
    7.345       45
    7.360       41
    7.375       39
    7.390       44
    7.405       43
    7.420       43
    7.435       45
    7.450       46
    7.465       47
    7.480       46
    7.495       59
    7.510       48
    7.525       56
    7.540       48
    7.555       48
    7.570       53
    7.585       47
    7.600       53
    7.615       44
    7.630       51
    7.645       42
    7.660       39
    7.675       46
    7.690       49
    7.705       50
    7.720       53
    7.735       49
    7.750       53
    7.765       51
    7.780       44
    7.795       43
    7.810       47
    7.825       49
    7.840       40
    7.855       51
    7.870       54
    7.885       42
    7.900       45
    7.915       41
    7.930       43
    7.945       43
    7.960       38
    7.975       48
    7.990       43
    8.005       44
    8.020       44
    8.035       43
    8.050       50
    8.065       52
    8.080       48
    8.095       49
    8.110       46
    8.125       58
    8.140       46
    8.155       50
    8.170       49
    8.185       44
    8.200       50
    8.215       53
    8.230       54
    8.245       51
    8.260       44
    8.275       48
    8.290       39
    8.305       51
    8.320       50
    8.335       47
    8.350       38
    8.365       47
    8.380       46
    8.395       44
    8.410       46
    8.425       62
    8.440       58
    8.455       51
    8.470       45
    8.485       49
    8.500       53
    8.515       47
    8.530       57
    8.545       52
    8.560       39
    8.575       44
    8.590       47
    8.605       51
    8.620       50
    8.635       47
    8.650       46
    8.665       53
    8.680       42
    8.695       50
    8.710       54
    8.725       50
    8.740       49
    8.755       46
    8.770       49
    8.785       51
    8.800       45
    8.815       35
    8.830       37
    8.845       44
    8.860       41
    8.875       54
    8.890       39
    8.905       46
    8.920       55
    8.935       45
    8.950       33
    8.965       55
    8.980       58
    8.995       51
    9.010       47
    9.025       56
    9.040       53
    9.055       54
    9.070       48
    9.085       49
    9.100       60
    9.115       73
    9.130       44
    9.145       51
    9.160       59
    9.175       54
    9.190       64
    9.205       50
    9.220       40
    9.235       39
    9.250       41
    9.265       49
    9.280       42
    9.295       45
    9.310       51
    9.325       44
    9.340       54
    9.355       45
    9.370       59
    9.385       48
    9.400       53
    9.415       50
    9.430       43
    9.445       45
    9.460       50
    9.475       43
    9.490       47
    9.505       52
    9.520       38
    9.535       56
    9.550       54
    9.565       46
    9.580       56
    9.595       47
    9.610       54
    9.625       59
    9.640       60
    9.655       48
    9.670       50
    9.685       64
    9.700       53
    9.715       49
    9.730       54
    9.745       56
    9.760       63
    9.775       58
    9.790       59
    9.805       56
    9.820       49
    9.835       56
    9.850       49
    9.865       45
    9.880       55
    9.895       54
    9.910       46
    9.925       49
    9.940       56
    9.955       59
    9.970       54
    9.985       58
   10.000       39
   10.015       42
   10.030       46
   10.045       50
   10.060       52
   10.075       58
   10.090       47
   10.105       64
   10.120       53
   10.135       48
   10.150       56
   10.165       56
   10.180       45
   10.195       63
   10.210       52
   10.225       55
   10.240       50
   10.255       51
   10.270       49
   10.285       52
   10.300       56
   10.315       66
   10.330       65
   10.345       66
   10.360       64
   10.375       70
   10.390       71
   10.405       75
   10.420       91
   10.435      101
   10.450       90
   10.465       75
   10.480       61
   10.495       48
   10.510       52
   10.525       51
   10.540       52
   10.555       53
   10.570       60
   10.585       65
   10.600       58
   10.615       71
   10.630       68
   10.645       60
   10.660       64
   10.675       72
   10.690       61
   10.705       74
   10.720       70
   10.735       87
   10.750       74
   10.765       81
   10.780      106
   10.795      115
   10.810      120
   10.825      120
   10.840      105
   10.855       89
   10.870       78
   10.885       57
   10.900       47
   10.915       53
   10.930       48
   10.945       51
   10.960       55
   10.975       55
   10.990       63
   11.005       55
   11.020       44
   11.035       54
   11.050       64
   11.065       63
   11.080       61
   11.095       57
   11.110       64
   11.125       73
   11.140       71
   11.155       82
   11.170       85
   11.185       92
   11.200      103
   11.215       93
   11.230       88
   11.245       77
   11.260       60
   11.275       64
   11.290       56
   11.305       58
   11.320       61
   11.335       60
   11.350       55
   11.365       64
   11.380       64
   11.395       69
   11.410       53
   11.425       47
   11.440       47
   11.455       45
   11.470       49
   11.485       51
   11.500       46
   11.515       49
   11.530       39
   11.545       47
   11.560       52
   11.575       49
   11.590       50
   11.605       41
   11.620       58
   11.635       51
   11.650       45
   11.665       52
   11.680       61
   11.695       67
   11.710       39
   11.725       50
   11.740       71
   11.755       58
   11.770       58
   11.785       66
   11.800       59
   11.815       56
   11.830       80
   11.845       69
   11.860       85
   11.875       57
   11.890       68
   11.905       55
   11.920       57
   11.935       47
   11.950       56
   11.965       68
   11.980       65
   11.995       65
   12.010       69
   12.025       73
   12.040       88
   12.055       57
   12.070       70
   12.085       70
   12.100       48
   12.115       57
   12.130       68
   12.145       46
   12.160       51
   12.175       57
   12.190       55
   12.205       66
   12.220       63
   12.235       62
   12.250       56
   12.265       58
   12.280       58
   12.295       52
   12.310       52
   12.325       47
   12.340       51
   12.355       58
   12.370       54
   12.385       65
   12.400       58
   12.415       64
   12.430       64
   12.445       73
   12.460       78
   12.475      107
   12.490      112
   12.505      112
   12.520      134
   12.535      149
   12.550      171
   12.565      189
   12.580      238
   12.595      292
   12.610      374
   12.625      426
   12.640      408
   12.655      332
   12.670      272
   12.685      274
   12.700      309
   12.715      312
   12.730      286
   12.745      207
   12.760      143
   12.775      102
   12.790       87
   12.805       76
   12.820       69
   12.835       66
   12.850       71
   12.865       68
   12.880       78
   12.895       88
   12.910       74
   12.925       87
   12.940      113
   12.955      128
   12.970      134
   12.985      168
   13.000      196
   13.015      222
   13.030      211
   13.045      161
   13.060      139
   13.075      150
   13.090      142
   13.105      170
   13.120      206
   13.135      251
   13.150      339
   13.165      449
   13.180      509
   13.195      608
   13.210      627
   13.225      554
   13.240      464
   13.255      473
   13.270      577
   13.285      672
   13.300      875
   13.315     1070
   13.330      943
   13.345      671
   13.360      373
   13.375      207
   13.390      148
   13.405      128
   13.420      132
   13.435      127
   13.450      123
   13.465      127
   13.480      160
   13.495      195
   13.510      200
   13.525      233
   13.540      279
   13.555      286
   13.570      287
   13.585      324
   13.600      254
   13.615      198
   13.630      133
   13.645       91
   13.660       80
   13.675       69
   13.690       74
   13.705       83
   13.720       90
   13.735       72
   13.750       65
   13.765       84
   13.780       80
   13.795       95
   13.810      118
   13.825      119
   13.840      107
   13.855       78
   13.870       76
   13.885       75
   13.900       64
   13.915       66
   13.930       65
   13.945       71
   13.960       58
   13.975       65
   13.990       63
   14.005       70
   14.020       69
   14.035       74
   14.050       71
   14.065       59
   14.080       61
   14.095       71
   14.110       67
   14.125       73
   14.140       72
   14.155       68
   14.170       82
   14.185       85
   14.200       94
   14.215      101
   14.230      101
   14.245      113
   14.260      141
   14.275      155
   14.290      156
   14.305      146
   14.320      142
   14.335      152
   14.350      162
   14.365      192
   14.380      190
   14.395      168
   14.410      191
   14.425      190
   14.440      198
   14.455      217
   14.470      268
   14.485      297
   14.500      260
   14.515      200
   14.530      128
   14.545       81
   14.560       81
   14.575       68
   14.590       65
   14.605       62
   14.620       60
   14.635       56
   14.650       69
   14.665       66
   14.680       70
   14.695       77
   14.710       69
   14.725       66
   14.740       62
   14.755       69
   14.770       64
   14.785       63
   14.800       74
   14.815       82
   14.830       78
   14.845       94
   14.860       87
   14.875       85
   14.890      101
   14.905      130
   14.920      146
   14.935      146
   14.950      180
   14.965      235
   14.980      308
   14.995      310
   15.010      322
   15.025      387
   15.040      457
   15.055      621
   15.070      786
   15.085      739
   15.100      578
   15.115      358
   15.130      207
   15.145      144
   15.160      111
   15.175      108
   15.190      114
   15.205      111
   15.220      135
   15.235      143
   15.250      175
   15.265      195
   15.280      220
   15.295      251
   15.310      256
   15.325      214
   15.340      165
   15.355      172
   15.370      163
   15.385      139
   15.400      114
   15.415      104
   15.430       97
   15.445       95
   15.460       95
   15.475      130
   15.490      140
   15.505      153
   15.520      163
   15.535      205
   15.550      230
   15.565      279
   15.580      302
   15.595      255
   15.610      198
   15.625      140
   15.640      112
   15.655      125
   15.670      112
   15.685      104
   15.700      124
   15.715      150
   15.730      174
   15.745      218
   15.760      229
   15.775      224
   15.790      184
   15.805      155
   15.820       98
   15.835       89
   15.850       81
   15.865       81
   15.880       86
   15.895       74
   15.910       78
   15.925       86
   15.940       77
   15.955       87
   15.970       92
   15.985      112
   16.000      127
   16.015      117
   16.030      157
   16.045      167
   16.060      223
   16.075      233
   16.090      282
   16.105      306
   16.120      305
   16.135      252
   16.150      179
   16.165      137
   16.180       94
   16.195      102
   16.210      103
   16.225      111
   16.240      114
   16.255      139
   16.270      174
   16.285      171
   16.300      173
   16.315      164
   16.330      190
   16.345      199
   16.360      248
   16.375      287
   16.390      360
   16.405      409
   16.420      410
   16.435      347
   16.450      273
   16.465      235
   16.480      205
   16.495      227
   16.510      277
   16.525      315
   16.540      327
   16.555      287
   16.570      262
   16.585      210
   16.600      189
   16.615      174
   16.630      194
   16.645      218
   16.660      298
   16.675      304
   16.690      329
   16.705      290
   16.720      245
   16.735      250
   16.750      261
   16.765      273
   16.780      296
   16.795      279
   16.810      219
   16.825      182
   16.840      121
   16.855       92
   16.870       88
   16.885       89
   16.900       96
   16.915       91
   16.930      118
   16.945      123
   16.960      141
   16.975      144
   16.990      158
   17.005      182
   17.020      193
   17.035      162
   17.050      155
   17.065      133
   17.080      131
   17.095      128
   17.110      139
   17.125      150
   17.140      168
   17.155      188
   17.170      199
   17.185      246
   17.200      277
   17.215      253
   17.230      203
   17.245      178
   17.260      138
   17.275      124
   17.290      122
   17.305      133
   17.320      127
   17.335      109
   17.350      117
   17.365      120
   17.380      133
   17.395      139
   17.410      131
   17.425      166
   17.440      207
   17.455      195
   17.470      193
   17.485      177
   17.500      120
   17.515       91
   17.530       92
   17.545       71
   17.560       69
   17.575       94
   17.590       97
   17.605       97
   17.620      115
   17.635      145
   17.650      109
   17.665      117
   17.680      118
   17.695       91
   17.710      108
   17.725      101
   17.740      104
   17.755      104
   17.770       99
   17.785       94
   17.800      101
   17.815       99
   17.830       83
   17.845       69
   17.860       83
   17.875       77
   17.890       66
   17.905       64
   17.920       78
   17.935       76
   17.950       75
   17.965       76
   17.980       72
   17.995       75
   18.010       67
   18.025       65
   18.040       68
   18.055       73
   18.070       64
   18.085       70
   18.100       85
   18.115       75
   18.130       68
   18.145       76
   18.160       96
   18.175      109
   18.190      123
   18.205      127
   18.220      139
   18.235      152
   18.250      154
   18.265      175
   18.280      171
   18.295      153
   18.310      133
   18.325      103
   18.340       95
   18.355       71
   18.370       77
   18.385       72
   18.400       76
   18.415       70
   18.430       84
   18.445       68
   18.460      100
   18.475       92
   18.490      114
   18.505      128
   18.520      151
   18.535      181
   18.550      163
   18.565      149
   18.580      125
   18.595      136
   18.610      131
   18.625      153
   18.640      187
   18.655      197
   18.670      184
   18.685      150
   18.700      125
   18.715      125
   18.730      107
   18.745       81
   18.760       98
   18.775      103
   18.790      106
   18.805      106
   18.820      122
   18.835      139
   18.850      149
   18.865      147
   18.880      149
   18.895      136
   18.910      107
   18.925      103
   18.940      100
   18.955      119
   18.970      102
   18.985       99
   19.000       88
   19.015       77
   19.030       88
   19.045       71
   19.060       66
   19.075       76
   19.090       70
   19.105       64
   19.120       59
   19.135       75
   19.150       79
   19.165       67
   19.180       76
   19.195       75
   19.210       71
   19.225       66
   19.240       68
   19.255       76
   19.270       63
   19.285       61
   19.300       69
   19.315       50
   19.330       64
   19.345       72
   19.360       71
   19.375       66
   19.390       75
   19.405       69
   19.420       79
   19.435       61
   19.450       68
   19.465       78
   19.480       73
   19.495       82
   19.510       99
   19.525      102
   19.540      116
   19.555      137
   19.570      136
   19.585      124
   19.600      140
   19.615      145
   19.630      134
   19.645      109
   19.660      100
   19.675      100
   19.690       79
   19.705       80
   19.720      100
   19.735      103
   19.750      109
   19.765      129
   19.780      150
   19.795      180
   19.810      220
   19.825      264
   19.840      341
   19.855      358
   19.870      374
   19.885      354
   19.900      252
   19.915      197
   19.930      177
   19.945      181
   19.960      200
   19.975      262
   19.990      246
   20.005      247
   20.020      233
   20.035      203
   20.050      173
   20.065      138
   20.080      111
   20.095       96
   20.110       81
   20.125       82
   20.140       80
   20.155       88
   20.170       98
   20.185      100
   20.200      110
   20.215      108
   20.230       87
   20.245       84
   20.260       82
   20.275       82
   20.290       77
   20.305       75
   20.320       67
   20.335       70
   20.350       75
   20.365       61
   20.380       63
   20.395       66
   20.410       66
   20.425       60
   20.440       64
   20.455       70
   20.470       73
   20.485       63
   20.500       71
   20.515       82
   20.530       76
   20.545       83
   20.560       73
   20.575       81
   20.590       69
   20.605       76
   20.620       79
   20.635       74
   20.650       97
   20.665       87
   20.680       98
   20.695       95
   20.710      113
   20.725      127
   20.740      138
   20.755      132
   20.770      136
   20.785      146
   20.800      151
   20.815      142
   20.830      176
   20.845      168
   20.860      144
   20.875      105
   20.890       89
   20.905       77
   20.920       75
   20.935       70
   20.950       90
   20.965       89
   20.980       89
   20.995       80
   21.010       70
   21.025       74
   21.040       85
   21.055       70
   21.070       65
   21.085       73
   21.100       65
   21.115       71
   21.130       68
   21.145       73
   21.160       89
   21.175       87
   21.190      105
   21.205      107
   21.220       96
   21.235       97
   21.250       82
   21.265       74
   21.280       74
   21.295       69
   21.310       68
   21.325       63
   21.340       66
   21.355       70
   21.370       61
   21.385       74
   21.400       61
   21.415       64
   21.430       72
   21.445       70
   21.460       78
   21.475       82
   21.490       91
   21.505      106
   21.520      131
   21.535      156
   21.550      166
   21.565      191
   21.580      183
   21.595      145
   21.610      123
   21.625      138
   21.640      113
   21.655      132
   21.670      165
   21.685      189
   21.700      229
   21.715      305
   21.730      426
   21.745      503
   21.760      469
   21.775      434
   21.790      314
   21.805      243
   21.820      154
   21.835      121
   21.850      148
   21.865      129
   21.880      138
   21.895      110
   21.910      104
   21.925       82
   21.940       86
   21.955       66
   21.970       75
   21.985       79
   22.000       71
   22.015       75
   22.030       70
   22.045       64
   22.060       66
   22.075       72
   22.090       69
   22.105       70
   22.120       70
   22.135       73
   22.150       64
   22.165       65
   22.180       76
   22.195       84
   22.210       76
   22.225       81
   22.240       76
   22.255      102
   22.270       88
   22.285       64
   22.300       84
   22.315       84
   22.330      102
   22.345      130
   22.360      108
   22.375      110
   22.390       89
   22.405       81
   22.420       78
   22.435       75
   22.450       87
   22.465       94
   22.480       85
   22.495      107
   22.510      122
   22.525      129
   22.540      117
   22.555      136
   22.570      168
   22.585      164
   22.600      158
   22.615      126
   22.630      105
   22.645      109
   22.660      107
   22.675      111
   22.690      114
   22.705      122
   22.720      143
   22.735      161
   22.750      162
   22.765      207
   22.780      237
   22.795      209
   22.810      191
   22.825      186
   22.840      169
   22.855      143
   22.870      141
   22.885      114
   22.900       96
   22.915      100
   22.930       97
   22.945       92
   22.960       90
   22.975       92
   22.990       85
   23.005      106
   23.020      118
   23.035      105
   23.050      109
   23.065      104
   23.080       87
   23.095       88
   23.110      106
   23.125      119
   23.140      149
   23.155      154
   23.170      128
   23.185      113
   23.200       96
   23.215       78
   23.230       70
   23.245       67
   23.260       71
   23.275       68
   23.290       80
   23.305       86
   23.320       68
   23.335       65
   23.350       74
   23.365       80
   23.380       70
   23.395       68
   23.410       54
   23.425       63
   23.440       64
   23.455       53
   23.470       61
   23.485       64
   23.500       61
   23.515       53
   23.530       61
   23.545       60
   23.560       65
   23.575       66
   23.590       65
   23.605       58
   23.620       61
   23.635       63
   23.650       53
   23.665       69
   23.680       65
   23.695       57
   23.710       64
   23.725       73
   23.740       71
   23.755       75
   23.770       74
   23.785       68
   23.800       78
   23.815       80
   23.830       59
   23.845       76
   23.860       76
   23.875       86
   23.890       81
   23.905       92
   23.920       81
   23.935      117
   23.950      115
   23.965       85
   23.980       78
   23.995       85
   24.010       66
   24.025       65
   24.040       54
   24.055       69
   24.070       61
   24.085       59
   24.100       68
   24.115       82
   24.130       91
   24.145      104
   24.160      101
   24.175      114
   24.190      126
   24.205      120
   24.220      110
   24.235       89
   24.250       85
   24.265       71
   24.280       60
   24.295       59
   24.310       74
   24.325       66
   24.340       72
   24.355       74
   24.370       84
   24.385       83
   24.400       69
   24.415       74
   24.430       85
   24.445       71
   24.460       75
   24.475       79
   24.490       82
   24.505       79
   24.520       87
   24.535       91
   24.550       97
   24.565       93
   24.580      100
   24.595      102
   24.610       76
   24.625       93
   24.640       82
   24.655       80
   24.670       82
   24.685       79
   24.700       91
   24.715       64
   24.730       77
   24.745       83
   24.760       74
   24.775       65
   24.790       62
   24.805       80
   24.820       76
   24.835       66
   24.850       74
   24.865       73
   24.880       97
   24.895       94
   24.910      107
   24.925      120
   24.940      110
   24.955      100
   24.970       86
   24.985       65
   25.000       65
   25.015       79
   25.030       83
   25.045       90
   25.060       93
   25.075       82
   25.090       87
   25.105       95
   25.120      103
   25.135      116
   25.150       92
   25.165       83
   25.180       87
   25.195       83
   25.210       69
   25.225       80
   25.240       73
   25.255       65
   25.270       73
   25.285       78
   25.300       83
   25.315      103
   25.330      112
   25.345      114
   25.360      116
   25.375      105
   25.390      101
   25.405       88
   25.420       86
   25.435       85
   25.450       91
   25.465       75
   25.480       77
   25.495       75
   25.510       97
   25.525       90
   25.540       95
   25.555      117
   25.570      134
   25.585      184
   25.600      181
   25.615      175
   25.630      158
   25.645      156
   25.660      133
   25.675       91
   25.690       82
   25.705       75
   25.720       69
   25.735       83
   25.750       99
   25.765      101
   25.780       97
   25.795      112
   25.810      120
   25.825      131
   25.840      114
   25.855      111
   25.870       96
   25.885       81
   25.900       89
   25.915       84
   25.930       83
   25.945       79
   25.960       82
   25.975       86
   25.990      102
   26.005       97
   26.020       99
   26.035       95
   26.050       96
   26.065       94
   26.080      121
   26.095      122
   26.110      112
   26.125       93
   26.140       80
   26.155       78
   26.170       74
   26.185       68
   26.200       71
   26.215       80
   26.230       65
   26.245       66
   26.260       85
   26.275       86
   26.290       91
   26.305       94
   26.320       77
   26.335       76
   26.350       69
   26.365       69
   26.380       69
   26.395       59
   26.410       62
   26.425       68
   26.440       74
   26.455       68
   26.470       81
   26.485       59
   26.500       64
   26.515       74
   26.530       84
   26.545       95
   26.560       92
   26.575       85
   26.590       99
   26.605       92
   26.620       94
   26.635       74
   26.650       68
   26.665       64
   26.680       63
   26.695       61
   26.710       55
   26.725       63
   26.740       77
   26.755       79
   26.770       91
   26.785       98
   26.800      119
   26.815      138
   26.830      142
   26.845      144
   26.860      156
   26.875      130
   26.890      124
   26.905      145
   26.920      154
   26.935      117
   26.950      106
   26.965      106
   26.980       90
   26.995       81
   27.010       96
   27.025       77
   27.040       72
   27.055       79
   27.070       92
   27.085       83
   27.100       67
   27.115       77
   27.130       77
   27.145       90
   27.160       91
   27.175       73
   27.190       82
   27.205       81
   27.220       74
   27.235       76
   27.250       91
   27.265       98
   27.280       79
   27.295       92
   27.310       80
   27.325       94
   27.340       97
   27.355       77
   27.370       91
   27.385       92
   27.400       99
   27.415      109
   27.430      126
   27.445      112
   27.460      123
   27.475      117
   27.490      116
   27.505      125
   27.520      136
   27.535      150
   27.550      163
   27.565      151
   27.580      124
   27.595      132
   27.610      128
   27.625      109
   27.640      101
   27.655       86
   27.670       92
   27.685       83
   27.700       84
   27.715       84
   27.730       87
   27.745       79
   27.760       97
   27.775      100
   27.790      112
   27.805      100
   27.820      119
   27.835      116
   27.850       89
   27.865      102
   27.880       95
   27.895       75
   27.910       79
   27.925       86
   27.940       70
   27.955       68
   27.970       70
   27.985       85
   28.000       81
   28.015       82
   28.030      102
   28.045       90
   28.060       90
   28.075       76
   28.090       85
   28.105       88
   28.120       75
   28.135       80
   28.150       74
   28.165       80
   28.180       84
   28.195       70
   28.210       73
   28.225       84
   28.240       90
   28.255      104
   28.270      100
   28.285      102
   28.300      104
   28.315       94
   28.330       98
   28.345       98
   28.360       98
   28.375       97
   28.390       76
   28.405       78
   28.420       72
   28.435       82
   28.450       88
   28.465       81
   28.480       70
   28.495       69
   28.510       74
   28.525       75
   28.540       72
   28.555       67
   28.570       75
   28.585       81
   28.600       87
   28.615       82
   28.630       83
   28.645       83
   28.660       98
   28.675       82
   28.690       76
   28.705       66
   28.720       79
   28.735       87
   28.750       83
   28.765       93
   28.780       95
   28.795       90
   28.810       99
   28.825      119
   28.840      103
   28.855       95
   28.870       99
   28.885       86
   28.900       91
   28.915       93
   28.930       93
   28.945      103
   28.960       97
   28.975       97
   28.990      105
   29.005       96
   29.020       91
   29.035       94
   29.050       90
   29.065       82
   29.080       98
   29.095       95
   29.110       95
   29.125       80
   29.140       83
   29.155       84
   29.170       86
   29.185       80
   29.200       86
   29.215       90
   29.230       78
   29.245       63
   29.260       74
   29.275       65
   29.290       69
   29.305       82
   29.320       77
   29.335       82
   29.350       85
   29.365       68
   29.380       62
   29.395       86
   29.410       80
   29.425       89
   29.440       95
   29.455       91
   29.470       99
   29.485       96
   29.500       96
   29.515       93
   29.530      103
   29.545      103
   29.560      108
   29.575      108
   29.590      122
   29.605      112
   29.620      112
   29.635      107
   29.650       94
   29.665       84
   29.680       74
   29.695       76
   29.710       82
   29.725       85
   29.740       79
   29.755       69
   29.770       72
   29.785       86
   29.800       76
   29.815       73
   29.830       67
   29.845       65
   29.860       75
   29.875       75
   29.890       80
   29.905       67
   29.920       72
   29.935       70
   29.950       66
   29.965       67
   29.980       58
   29.995       73
   30.010       72
   30.025       65
   30.040       73
   30.055       86
   30.070       67
   30.085       68
   30.100       71
   30.115       74
   30.130       69
   30.145       63
   30.160       75
   30.175       65
   30.190       76
   30.205       79
   30.220       71
   30.235       69
   30.250       66
   30.265       68
   30.280       68
   30.295       81
   30.310       87
   30.325       97
   30.340       77
   30.355       68
   30.370       83
   30.385       70
   30.400       69
   30.415       84
   30.430       96
   30.445      103
   30.460       88
   30.475       97
   30.490       91
   30.505      109
   30.520      105
   30.535       98
   30.550       81
   30.565       75
   30.580       84
   30.595       77
   30.610       82
   30.625       76
   30.640       73
   30.655       72
   30.670       72
   30.685       67
   30.700       59
   30.715       54
   30.730       65
   30.745       80
   30.760       74
   30.775       63
   30.790       64
   30.805       76
   30.820       85
   30.835       79
   30.850       87
   30.865       99
   30.880       93
   30.895       94
   30.910       89
   30.925       97
   30.940       84
   30.955       80
   30.970       79
   30.985       70
   31.000       86
   31.015       84
   31.030       81
   31.045       68
   31.060       85
   31.075       75
   31.090       71
   31.105       80
   31.120       86
   31.135       82
   31.150       81
   31.165       77
   31.180       75
   31.195       67
   31.210       73
   31.225       82
   31.240       89
   31.255       87
   31.270       83
   31.285       81
   31.300       95
   31.315       75
   31.330       80
   31.345       84
   31.360       71
   31.375       75
   31.390       88
   31.405       93
   31.420       95
   31.435       91
   31.450       79
   31.465       92
   31.480       77
   31.495      112
   31.510       99
   31.525       90
   31.540       96
   31.555       87
   31.570       86
   31.585       92
   31.600       89
   31.615       93
   31.630       96
   31.645       90
   31.660       91
   31.675       90
   31.690       87
   31.705       95
   31.720       92
   31.735       86
   31.750       83
   31.765       91
   31.780       95
   31.795      107
   31.810       92
   31.825      114
   31.840       96
   31.855       77
   31.870       88
   31.885       85
   31.900       74
   31.915       78
   31.930       75
   31.945       79
   31.960       67
   31.975       90
   31.990       99
   32.005       81
   32.020       83
   32.035       79
   32.050       83
   32.065       83
   32.080       92
   32.095       79
   32.110       73
   32.125       82
   32.140       73
   32.155       59
   32.170       74
   32.185       93
   32.200       78
   32.215       72
   32.230       66
   32.245       75
   32.260       79
   32.275       77
   32.290       63
   32.305       62
   32.320       57
   32.335       61
   32.350       58
   32.365       61
   32.380       71
   32.395       66
   32.410       58
   32.425       77
   32.440       69
   32.455       79
   32.470       74
   32.485       58
   32.500       71
   32.515       71
   32.530       68
   32.545       77
   32.560       65
   32.575       75
   32.590       66
   32.605       63
   32.620       66
   32.635       71
   32.650       62
   32.665       69
   32.680       75
   32.695       55
   32.710       64
   32.725       73
   32.740       68
   32.755       68
   32.770       59
   32.785       88
   32.800       85
   32.815       87
   32.830       97
   32.845      100
   32.860      104
   32.875      105
   32.890       97
   32.905      104
   32.920       94
   32.935       94
   32.950       90
   32.965       93
   32.980       90
   32.995       76
   33.010       63
   33.025       69
   33.040       64
   33.055       82
   33.070       79
   33.085       69
   33.100       78
   33.115       83
   33.130       72
   33.145       72
   33.160       78
   33.175       79
   33.190       74
   33.205       73
   33.220       91
   33.235       85
   33.250       81
   33.265       79
   33.280       84
   33.295       81
   33.310       83
   33.325       90
   33.340       95
   33.355       86
   33.370       90
   33.385      100
   33.400      106
   33.415       90
   33.430       78
   33.445       80
   33.460       97
   33.475      103
   33.490       98
   33.505       74
   33.520       76
   33.535       84
   33.550       84
   33.565       63
   33.580       68
   33.595       71
   33.610       73
   33.625       76
   33.640       87
   33.655       79
   33.670       95
   33.685       97
   33.700      100
   33.715      101
   33.730      114
   33.745      127
   33.760      102
   33.775       98
   33.790       96
   33.805      102
   33.820       92
   33.835       88
   33.850       94
   33.865       75
   33.880       91
   33.895      107
   33.910       81
   33.925       83
   33.940       77
   33.955       90
   33.970       84
   33.985       76
   34.000       80
   34.015       84
   34.030       91
   34.045       68
   34.060       82
   34.075       79
   34.090       86
   34.105       78
   34.120       61
   34.135       58
   34.150       61
   34.165       69
   34.180       76
   34.195       69
   34.210       67
   34.225       67
   34.240       84
   34.255       75
   34.270       62
   34.285       69
   34.300       70
   34.315       59
   34.330       90
   34.345       86
   34.360       80
   34.375       93
   34.390       79
   34.405       85
   34.420       81
   34.435       88
   34.450       74
   34.465       68
   34.480       75
   34.495       73
   34.510       71
   34.525       75
   34.540       68
   34.555       64
   34.570       66
   34.585       72
   34.600       67
   34.615       67
   34.630       67
   34.645       67
   34.660       70
   34.675       73
   34.690       76
   34.705       67
   34.720       72
   34.735       64
   34.750       65
   34.765       77
   34.780       73
   34.795       67
   34.810       63
   34.825       73
   34.840       73
   34.855       81
   34.870       71
   34.885       70
   34.900       61
   34.915       73
   34.930       68
   34.945       81
   34.960       73
   34.975       79
   34.990       86
   35.005       89
   35.020       84
   35.035       72
   35.050       64
   35.065       82
   35.080       78
   35.095      104
   35.110      102
   35.125       97
   35.140       92
   35.155       77
   35.170       96
   35.185      111
   35.200       90
   35.215       92
   35.230       90
   35.245      101
   35.260       88
   35.275       82
   35.290       78
   35.305       85
   35.320      105
   35.335      112
   35.350      105
   35.365      108
   35.380       97
   35.395       97
   35.410      105
   35.425      113
   35.440      100
   35.455       99
   35.470       97
   35.485       97
   35.500       96
   35.515      111
   35.530      117
   35.545       95
   35.560       91
   35.575       87
   35.590       83
   35.605       81
   35.620       70
   35.635       71
   35.650       59
   35.665       70
   35.680       64
   35.695       68
   35.710       64
   35.725       76
   35.740       64
   35.755       63
   35.770       68
   35.785       73
   35.800       60
   35.815       68
   35.830       71
   35.845       66
   35.860       56
   35.875       70
   35.890       61
   35.905       62
   35.920       55
   35.935       59
   35.950       89
   35.965       70
   35.980       69
   35.995       59
   36.010       64
   36.025       68
   36.040       72
   36.055       63
   36.070       68
   36.085       65
   36.100       68
   36.115       65
   36.130       63
   36.145       59
   36.160       82
   36.175       93
   36.190       78
   36.205       72
   36.220       72
   36.235       77
   36.250       66
   36.265       70
   36.280       61
   36.295       53
   36.310       75
   36.325       73
   36.340       70
   36.355       64
   36.370       60
   36.385       59
   36.400       71
   36.415       85
   36.430       77
   36.445       69
   36.460       68
   36.475       64
   36.490       71
   36.505       70
   36.520       61
   36.535       75
   36.550       70
   36.565       64
   36.580       67
   36.595       66
   36.610       75
   36.625       83
   36.640       87
   36.655       93
   36.670       90
   36.685       76
   36.700       64
   36.715       69
   36.730       64
   36.745       71
   36.760       57
   36.775       70
   36.790       67
   36.805       66
   36.820       78
   36.835       62
   36.850       73
   36.865       74
   36.880       57
   36.895       75
   36.910       65
   36.925       54
   36.940       81
   36.955       73
   36.970       79
   36.985       77
   37.000       72
   37.015       67
   37.030       67
   37.045       79
   37.060       68
   37.075       67
   37.090       63
   37.105       65
   37.120       77
   37.135       79
   37.150       71
   37.165       96
   37.180       97
   37.195       93
   37.210       73
   37.225       69
   37.240       76
   37.255       65
   37.270       71
   37.285       62
   37.300       70
   37.315       68
   37.330       71
   37.345       63
   37.360       66
   37.375       51
   37.390       62
   37.405       61
   37.420       61
   37.435       60
   37.450       59
   37.465       61
   37.480       58
   37.495       62
   37.510       73
   37.525       71
   37.540       72
   37.555       67
   37.570       60
   37.585       72
   37.600       60
   37.615       52
   37.630       56
   37.645       58
   37.660       55
   37.675       52
   37.690       60
   37.705       64
   37.720       64
   37.735       76
   37.750       74
   37.765       67
   37.780       72
   37.795       62
   37.810       66
   37.825       63
   37.840       75
   37.855       59
   37.870       70
   37.885       69
   37.900       69
   37.915       71
   37.930       67
   37.945       78
   37.960       78
   37.975       76
   37.990       62
   38.005       56
   38.020       67
   38.035       72
   38.050       81
   38.065       79
   38.080       76
   38.095       73
   38.110       73
   38.125       70
   38.140       59
   38.155       60
   38.170       58
   38.185       69
   38.200       68
   38.215       76
   38.230       77
   38.245       68
   38.260       89
   38.275       90
   38.290       86
   38.305       81
   38.320       73
   38.335       73
   38.350       68
   38.365       72
   38.380       68
   38.395       65
   38.410       72
   38.425       72
   38.440       58
   38.455       61
   38.470       68
   38.485       55
   38.500       69
   38.515       65
   38.530       79
   38.545       75
   38.560       75
   38.575       78
   38.590       74
   38.605       75
   38.620       63
   38.635       68
   38.650       69
   38.665       69
   38.680       56
   38.695       57
   38.710       46
   38.725       67
   38.740       69
   38.755       75
   38.770       64
   38.785       74
   38.800       78
   38.815       71
   38.830       65
   38.845       74
   38.860       63
   38.875       63
   38.890       74
   38.905       71
   38.920       67
   38.935       76
   38.950       56
   38.965       55
   38.980       58
   38.995       56
   39.010       63
   39.025       61
   39.040       61
   39.055       68
   39.070       59
   39.085       71
   39.100       60
   39.115       53
   39.130       58
   39.145       60
   39.160       50
   39.175       59
   39.190       57
   39.205       75
   39.220       66
   39.235       67
   39.250       68
   39.265       63
   39.280       63
   39.295       64
   39.310       65
   39.325       66
   39.340       63
   39.355       58
   39.370       59
   39.385       58
   39.400       54
   39.415       56
   39.430       71
   39.445       62
   39.460       51
   39.475       50
   39.490       55
   39.505       68
   39.520       61
   39.535       67
   39.550       71
   39.565       64
   39.580       69
   39.595       67
   39.610       65
   39.625       61
   39.640       67
   39.655       66
   39.670       73
   39.685       80
   39.700       66
   39.715       72
   39.730       62
   39.745       64
   39.760       65
   39.775       57
   39.790       72
   39.805       68
   39.820       59
   39.835       66
   39.850       67
   39.865       57
   39.880       62
   39.895       60
   39.910       63
   39.925       62
   39.940       64
   39.955       54
   39.970       60
   39.985       66
   40.000       65
   40.015       64
   40.030       62
   40.045       60
   40.060       61
   40.075       57
   40.090       62
   40.105       47
   40.120       56
   40.135       54
   40.150       51
   40.165       59
   40.180       59
   40.195       54
   40.210       61
   40.225       59
   40.240       59
   40.255       66
   40.270       71
   40.285       57
   40.300       61
   40.315       61
   40.330       56
   40.345       50
   40.360       64
   40.375       59
   40.390       65
   40.405       79
   40.420       78
   40.435       77
   40.450       71
   40.465       64
   40.480       67
   40.495       59
   40.510       64
   40.525       61
   40.540       65
   40.555       53
   40.570       71
   40.585       65
   40.600       57
   40.615       76
   40.630       71
   40.645       84
   40.660       70
   40.675       56
   40.690       74
   40.705       74
   40.720       72
   40.735       67
   40.750       75
   40.765       70
   40.780       75
   40.795       69
   40.810       65
   40.825       55
   40.840       61
   40.855       62
   40.870       67
   40.885       71
   40.900       72
   40.915       57
   40.930       57
   40.945       56
   40.960       55
   40.975       59
   40.990       54
   41.005       59
   41.020       52
   41.035       56
   41.050       51
   41.065       65
   41.080       63
   41.095       59
   41.110       60
   41.125       54
   41.140       52
   41.155       63
   41.170       60
   41.185       55
   41.200       63
   41.215       66
   41.230       59
   41.245       64
   41.260       57
   41.275       63
   41.290       56
   41.305       58
   41.320       68
   41.335       62
   41.350       57
   41.365       72
   41.380       66
   41.395       58
   41.410       57
   41.425       56
   41.440       62
   41.455       53
   41.470       55
   41.485       63
   41.500       63
   41.515       56
   41.530       74
   41.545       65
   41.560       76
   41.575       53
   41.590       58
   41.605       59
   41.620       64
   41.635       68
   41.650       75
   41.665       69
   41.680       73
   41.695       61
   41.710       64
   41.725       74
   41.740       74
   41.755       71
   41.770       62
   41.785       63
   41.800       64
   41.815       57
   41.830       53
   41.845       62
   41.860       68
   41.875       58
   41.890       66
   41.905       62
   41.920       83
   41.935       72
   41.950       57
   41.965       78
   41.980       58
   41.995       66
   42.010       60
   42.025       45
   42.040       55
   42.055       72
   42.070       69
   42.085       53
   42.100       54
   42.115       60
   42.130       62
   42.145       66
   42.160       65
   42.175       60
   42.190       72
   42.205       62
   42.220       58
   42.235       56
   42.250       69
   42.265       62
   42.280       61
   42.295       56
   42.310       52
   42.325       58
   42.340       40
   42.355       50
   42.370       67
   42.385       69
   42.400       60
   42.415       61
   42.430       60
   42.445       65
   42.460       49
   42.475       64
   42.490       56
   42.505       60
   42.520       53
   42.535       50
   42.550       56
   42.565       77
   42.580       65
   42.595       57
   42.610       75
   42.625       57
   42.640       56
   42.655       63
   42.670       64
   42.685       62
   42.700       68
   42.715       67
   42.730       56
   42.745       58
   42.760       63
   42.775       65
   42.790       56
   42.805       61
   42.820       56
   42.835       62
   42.850       60
   42.865       58
   42.880       43
   42.895       68
   42.910       64
   42.925       55
   42.940       53
   42.955       64
   42.970       49
   42.985       56
   43.000       54
   43.015       61
   43.030       51
   43.045       52
   43.060       62
   43.075       57
   43.090       61
   43.105       56
   43.120       52
   43.135       65
   43.150       66
   43.165       60
   43.180       57
   43.195       39
   43.210       54
   43.225       66
   43.240       61
   43.255       57
   43.270       57
   43.285       57
   43.300       64
   43.315       57
   43.330       48
   43.345       49
   43.360       45
   43.375       39
   43.390       49
   43.405       56
   43.420       54
   43.435       54
   43.450       47
   43.465       54
   43.480       64
   43.495       63
   43.510       67
   43.525       57
   43.540       55
   43.555       70
   43.570       63
   43.585       56
   43.600       60
   43.615       58
   43.630       61
   43.645       58
   43.660       62
   43.675       55
   43.690       50
   43.705       59
   43.720       51
   43.735       44
   43.750       63
   43.765       66
   43.780       60
   43.795       57
   43.810       63
   43.825       55
   43.840       63
   43.855       56
   43.870       65
   43.885       66
   43.900       53
   43.915       65
   43.930       66
   43.945       63
   43.960       66
   43.975       61
   43.990       55
   44.005       69
   44.020       61
   44.035       52
   44.050       69
   44.065       62
   44.080       59
   44.095       75
   44.110       64
   44.125       53
   44.140       54
   44.155       58
   44.170       62
   44.185       60
   44.200       54
   44.215       55
   44.230       54
   44.245       50
   44.260       48
   44.275       56
   44.290       45
   44.305       62
   44.320       66
   44.335       64
   44.350       57
   44.365       69
   44.380       60
   44.395       66
   44.410       58
   44.425       71
   44.440       69
   44.455       57
   44.470       52
   44.485       47
   44.500       61
   44.515       48
   44.530       62
   44.545       75
   44.560       63
   44.575       66
   44.590       75
   44.605       68
   44.620       75
   44.635       64
   44.650       64
   44.665       63
   44.680       56
   44.695       56
   44.710       67
   44.725       65
   44.740       64
   44.755       62
   44.770       61
   44.785       60
   44.800       63
   44.815       58
   44.830       59
   44.845       69
   44.860       76
   44.875       65
   44.890       78
   44.905       62
   44.920       58
   44.935       67
   44.950       69
   44.965       70
   44.980       64
   44.995       67
   45.010       71
   45.025       61
   45.040       50
   45.055       69
   45.070       78
   45.085       62
   45.100       73
   45.115       59
   45.130       53
   45.145       70
   45.160       69
   45.175       67
   45.190       58
   45.205       74
   45.220       56
   45.235       56
   45.250       53
   45.265       53
   45.280       62
   45.295       72
   45.310       57
   45.325       61
   45.340       50
   45.355       57
   45.370       71
   45.385       73
   45.400       65
   45.415       59
   45.430       57
   45.445       72
   45.460       52
   45.475       55
   45.490       51
   45.505       65
   45.520       65
   45.535       62
   45.550       58
   45.565       52
   45.580       54
   45.595       50
   45.610       60
   45.625       60
   45.640       56
   45.655       62
   45.670       56
   45.685       67
   45.700       62
   45.715       61
   45.730       52
   45.745       41
   45.760       63
   45.775       65
   45.790       56
   45.805       76
   45.820       56
   45.835       51
   45.850       68
   45.865       67
   45.880       62
   45.895       64
   45.910       64
   45.925       51
   45.940       59
   45.955       65
   45.970       52
   45.985       42
