    4.000       60
    4.015       61
    4.030       57
    4.045       43
    4.060       53
    4.075       46
    4.090       48
    4.105       56
    4.120       53
    4.135       49
    4.150       49
    4.165       51
    4.180       50
    4.195       46
    4.210       48
    4.225       54
    4.240       60
    4.255       66
    4.270       63
    4.285       42
    4.300       54
    4.315       59
    4.330       54
    4.345       57
    4.360       64
    4.375       54
    4.390       52
    4.405       45
    4.420       57
    4.435       58
    4.450       57
    4.465       52
    4.480       52
    4.495       50
    4.510       53
    4.525       56
    4.540       53
    4.555       48
    4.570       60
    4.585       61
    4.600       53
    4.615       51
    4.630       52
    4.645       47
    4.660       43
    4.675       50
    4.690       49
    4.705       47
    4.720       48
    4.735       58
    4.750       63
    4.765       52
    4.780       53
    4.795       57
    4.810       55
    4.825       54
    4.840       53
    4.855       54
    4.870       40
    4.885       41
    4.900       53
    4.915       48
    4.930       48
    4.945       49
    4.960       50
    4.975       42
    4.990       45
    5.005       50
    5.020       54
    5.035       46
    5.050       51
    5.065       44
    5.080       52
    5.095       64
    5.110       55
    5.125       44
    5.140       47
    5.155       42
    5.170       42
    5.185       53
    5.200       52
    5.215       48
    5.230       56
    5.245       52
    5.260       49
    5.275       49
    5.290       46
    5.305       44
    5.320       43
    5.335       50
    5.350       53
    5.365       42
    5.380       51
    5.395       53
    5.410       51
    5.425       49
    5.440       49
    5.455       43
    5.470       50
    5.485       48
    5.500       50
    5.515       45
    5.530       44
    5.545       48
    5.560       42
    5.575       38
    5.590       53
    5.605       43
    5.620       51
    5.635       40
    5.650       51
    5.665       41
    5.680       51
    5.695       47
    5.710       49
    5.725       45
    5.740       49
    5.755       44
    5.770       38
    5.785       39
    5.800       47
    5.815       50
    5.830       48
    5.845       51
    5.860       61
    5.875       33
    5.890       34
    5.905       47
    5.920       34
    5.935       44
    5.950       42
    5.965       37
    5.980       43
    5.995       56
    6.010       51
    6.025       51
    6.040       46
    6.055       49
    6.070       51
    6.085       45
    6.100       45
    6.115       45
    6.130       48
    6.145       53
    6.160       47
    6.175       45
    6.190       46
    6.205       47
    6.220       60
    6.235       54
    6.250       49
    6.265       63
    6.280       55
    6.295       57
    6.310       63
    6.325       58
    6.340       70
    6.355       65
    6.370       65
    6.385       79
    6.400       83
    6.415       83
    6.430       84
    6.445       85
    6.460       80
    6.475       86
    6.490       90
    6.505      116
    6.520      119
    6.535      121
    6.550      160
    6.565      191
    6.580      213
    6.595      206
    6.610      220
    6.625      235
    6.640      234
    6.655      194
    6.670      176
    6.685      123
    6.700       75
    6.715       58
    6.730       51
    6.745       51
    6.760       44
    6.775       45
    6.790       50
    6.805       42
    6.820       48
    6.835       42
    6.850       45
    6.865       46
    6.880       51
    6.895       52
    6.910       57
    6.925       49
    6.940       59
    6.955       59
    6.970       55
    6.985       60
    7.000       53
    7.015       57
    7.030       55
    7.045       54
    7.060       58
    7.075       65
    7.090       62
    7.105       68
    7.120       74
    7.135       88
    7.150       86
    7.165      112
    7.180      111
    7.195       82
    7.210       67
    7.225       51
    7.240       47
    7.255       40
    7.270       50
    7.285       52
    7.300       44
    7.315       40
    7.330       48
    7.345       44
    7.360       51
    7.375       50
    7.390       45
    7.405       34
    7.420       37
    7.435       47
    7.450       44
    7.465       41
    7.480       40
    7.495       50
    7.510       55
    7.525       48
    7.540       47
    7.555       42
    7.570       45
    7.585       43
    7.600       39
    7.615       31
    7.630       49
    7.645       42
    7.660       41
    7.675       47
    7.690       55
    7.705       53
    7.720       43
    7.735       41
    7.750       34
    7.765       34
    7.780       30
    7.795       36
    7.810       44
    7.825       49
    7.840       33
    7.855       35
    7.870       39
    7.885       49
    7.900       42
    7.915       40
    7.930       48
    7.945       47
    7.960       45
    7.975       44
    7.990       49
    8.005       59
    8.020       57
    8.035       56
    8.050       46
    8.065       46
    8.080       45
    8.095       54
    8.110       52
    8.125       45
    8.140       48
    8.155       44
    8.170       38
    8.185       48
    8.200       42
    8.215       45
    8.230       48
    8.245       47
    8.260       40
    8.275       38
    8.290       45
    8.305       47
    8.320       36
    8.335       37
    8.350       47
    8.365       40
    8.380       42
    8.395       51
    8.410       39
    8.425       47
    8.440       40
    8.455       32
    8.470       48
    8.485       59
    8.500       46
    8.515       44
    8.530       58
    8.545       64
    8.560       44
    8.575       50
    8.590       48
    8.605       60
    8.620       46
    8.635       39
    8.650       44
    8.665       52
    8.680       53
    8.695       36
    8.710       45
    8.725       50
    8.740       56
    8.755       44
    8.770       56
    8.785       46
    8.800       48
    8.815       40
    8.830       40
    8.845       34
    8.860       48
    8.875       51
    8.890       54
    8.905       40
    8.920       42
    8.935       55
    8.950       47
    8.965       53
    8.980       42
    8.995       46
    9.010       44
    9.025       56
    9.040       57
    9.055       52
    9.070       51
    9.085       55
    9.100       49
    9.115       50
    9.130       52
    9.145       42
    9.160       47
    9.175       52
    9.190       47
    9.205       53
    9.220       52
    9.235       59
    9.250       50
    9.265       50
    9.280       52
    9.295       57
    9.310       46
    9.325       38
    9.340       50
    9.355       44
    9.370       53
    9.385       53
    9.400       43
    9.415       44
    9.430       44
    9.445       46
    9.460       50
    9.475       40
    9.490       50
    9.505       48
    9.520       60
    9.535       56
    9.550       53
    9.565       47
    9.580       52
    9.595       43
    9.610       49
    9.625       42
    9.640       44
    9.655       54
    9.670       45
    9.685       45
    9.700       53
    9.715       58
    9.730       59
    9.745       60
    9.760       50
    9.775       57
    9.790       70
    9.805       57
    9.820       43
    9.835       41
    9.850       45
    9.865       52
    9.880       44
    9.895       34
    9.910       44
    9.925       54
    9.940       44
    9.955       37
    9.970       41
    9.985       44
   10.000       41
   10.015       35
   10.030       51
   10.045       49
   10.060       38
   10.075       34
   10.090       52
   10.105       54
   10.120       50
   10.135       40
   10.150       45
   10.165       46
   10.180       49
   10.195       45
   10.210       44
   10.225       46
   10.240       40
   10.255       52
   10.270       59
   10.285       46
   10.300       46
   10.315       43
   10.330       63
   10.345       62
   10.360       49
   10.375       63
   10.390       75
   10.405       64
   10.420       64
   10.435       90
   10.450       95
   10.465       94
   10.480       77
   10.495       66
   10.510       61
   10.525       48
   10.540       53
   10.555       48
   10.570       47
   10.585       54
   10.600       60
   10.615       63
   10.630       49
   10.645       55
   10.660       66
   10.675       76
   10.690       65
   10.705       66
   10.720       82
   10.735       70
   10.750       73
   10.765       78
   10.780       78
   10.795       78
   10.810      105
   10.825      133
   10.840      130
   10.855      133
   10.870       99
   10.885       93
   10.900       74
   10.915       56
   10.930       55
   10.945       59
   10.960       57
   10.975       47
   10.990       53
   11.005       53
   11.020       51
   11.035       42
   11.050       48
   11.065       49
   11.080       49
   11.095       59
   11.110       65
   11.125       68
   11.140       73
   11.155       72
   11.170       76
   11.185       85
   11.200       86
   11.215      105
   11.230      106
   11.245       80
   11.260       83
   11.275       69
   11.290       51
   11.305       47
   11.320       53
   11.335       49
   11.350       51
   11.365       53
   11.380       59
   11.395       72
   11.410       66
   11.425       73
   11.440       68
   11.455       52
   11.470       54
   11.485       53
   11.500       47
   11.515       48
   11.530       61
   11.545       49
   11.560       52
   11.575       49
   11.590       41
   11.605       50
   11.620       51
   11.635       39
   11.650       47
   11.665       53
   11.680       54
   11.695       52
   11.710       49
   11.725       57
   11.740       45
   11.755       48
   11.770       52
   11.785       60
   11.800       47
   11.815       49
   11.830       53
   11.845       56
   11.860       81
   11.875       71
   11.890       66
   11.905       49
   11.920       51
   11.935       50
   11.950       62
   11.965       55
   11.980       50
   11.995       54
   12.010       50
   12.025       55
   12.040       60
   12.055       60
   12.070       56
   12.085       57
   12.100       52
   12.115       53
   12.130       52
   12.145       43
   12.160       45
   12.175       54
   12.190       54
   12.205       57
   12.220       49
   12.235       47
   12.250       52
   12.265       44
   12.280       47
   12.295       48
   12.310       47
   12.325       45
   12.340       47
   12.355       55
   12.370       50
   12.385       54
   12.400       56
   12.415       62
   12.430       47
   12.445       56
   12.460       64
   12.475       82
   12.490      112
   12.505      118
   12.520      103
   12.535      117
   12.550      133
   12.565      171
   12.580      191
   12.595      222
   12.610      254
   12.625      341
   12.640      418
   12.655      456
   12.670      384
   12.685      307
   12.700      250
   12.715      237
   12.730      301
   12.745      301
   12.760      275
   12.775      203
   12.790      141
   12.805      102
   12.820       72
   12.835       60
   12.850       75
   12.865       64
   12.880       59
   12.895       72
   12.910       81
   12.925       71
   12.940       97
   12.955       97
   12.970      108
   12.985      122
   13.000      131
   13.015      185
   13.030      232
   13.045      278
   13.060      261
   13.075      214
   13.090      148
   13.105      139
   13.120      156
   13.135      182
   13.150      206
   13.165      256
   13.180      347
   13.195      433
   13.210      564
   13.225      661
   13.240      615
   13.255      537
   13.270      481
   13.285      523
   13.300      557
   13.315      760
   13.330     1007
   13.345     1187
   13.360     1028
   13.375      733
   13.390      395
   13.405      214
   13.420      115
   13.435      139
   13.450      135
   13.465      136
   13.480      116
   13.495      138
   13.510      165
   13.525      181
   13.540      219
   13.555      281
   13.570      284
   13.585      301
   13.600      296
   13.615      307
   13.630      262
   13.645      196
   13.660      130
   13.675       80
   13.690       72
   13.705       64
   13.720       76
   13.735       65
   13.750       68
   13.765       71
   13.780       71
   13.795       73
   13.810       68
   13.825       79
   13.840       97
   13.855       96
   13.870       91
   13.885       84
   13.900       71
   13.915       54
   13.930       52
   13.945       60
   13.960       62
   13.975       55
   13.990       47
   14.005       51
   14.020       47
   14.035       47
   14.050       52
   14.065       49
   14.080       48
   14.095       50
   14.110       57
   14.125       61
   14.140       53
   14.155       52
   14.170       62
   14.185       63
   14.200       66
   14.215       84
   14.230       87
   14.245       81
   14.260       99
   14.275      127
   14.290      154
   14.305      187
   14.320      168
   14.335      159
   14.350      136
   14.365      138
   14.380      167
   14.395      166
   14.410      164
   14.425      178
   14.440      158
   14.455      172
   14.470      194
   14.485      252
   14.500      300
   14.515      290
   14.530      275
   14.545      191
   14.560      119
   14.575       86
   14.590       76
   14.605       63
   14.620       49
   14.635       57
   14.650       50
   14.665       52
   14.680       60
   14.695       51
   14.710       48
   14.725       57
   14.740       48
   14.755       49
   14.770       69
   14.785       51
   14.800       68
   14.815       64
   14.830       62
   14.845       62
   14.860       52
   14.875       64
   14.890       77
   14.905       89
   14.920       94
   14.935      105
   14.950      130
   14.965      152
   14.980      169
   14.995      228
   15.010      265
   15.025      327
   15.040      359
   15.055      406
   15.070      502
   15.085      612
   15.100      716
   15.115      746
   15.130      599
   15.145      412
   15.160      245
   15.175      151
   15.190      109
   15.205       97
   15.220      100
   15.235      103
   15.250      110
   15.265      120
   15.280      161
   15.295      181
   15.310      228
   15.325      251
   15.340      228
   15.355      208
   15.370      163
   15.385      150
   15.400      150
   15.415      167
   15.430      126
   15.445       96
   15.460       83
   15.475       87
   15.490       88
   15.505      110
   15.520      120
   15.535      140
   15.550      167
   15.565      194
   15.580      215
   15.595      307
   15.610      326
   15.625      308
   15.640      241
   15.655      166
   15.670      109
   15.685      102
   15.700      112
   15.715      125
   15.730      137
   15.745      165
   15.760      201
   15.775      243
   15.790      255
   15.805      268
   15.820      224
   15.835      157
   15.850      100
   15.865       72
   15.880       57
   15.895       76
   15.910       74
   15.925       69
   15.940       67
   15.955       60
   15.970       61
   15.985       74
   16.000       85
   16.015      103
   16.030      132
   16.045      116
   16.060      147
   16.075      168
   16.090      214
   16.105      244
   16.120      274
   16.135      352
   16.150      312
   16.165      278
   16.180      196
   16.195      138
   16.210      105
   16.225       84
   16.240       84
   16.255       91
   16.270       98
   16.285      123
   16.300      139
   16.315      177
   16.330      208
   16.345      192
   16.360      191
   16.375      201
   16.390      234
   16.405      268
   16.420      359
   16.435      452
   16.450      468
   16.465      379
   16.480      297
   16.495      222
   16.510      195
   16.525      198
   16.540      249
   16.555      296
   16.570      339
   16.585      350
   16.600      303
   16.615      266
   16.630      199
   16.645      184
   16.660      190
   16.675      217
   16.690      282
   16.705      316
   16.720      379
   16.735      362
   16.750      282
   16.765      265
   16.780      283
   16.795      288
   16.810      313
   16.825      314
   16.840      277
   16.855      225
   16.870      169
   16.885      128
   16.900       96
   16.915       86
   16.930       84
   16.945       91
   16.960       92
   16.975      116
   16.990      121
   17.005      139
   17.020      177
   17.035      194
   17.050      198
   17.065      188
   17.080      150
   17.095      120
   17.110       89
   17.125      111
   17.140      125
   17.155      153
   17.170      165
   17.185      186
   17.200      232
   17.215      271
   17.230      284
   17.245      301
   17.260      271
   17.275      230
   17.290      155
   17.305      116
   17.320      124
   17.335      119
   17.350      110
   17.365      103
   17.380      118
   17.395      121
   17.410      136
   17.425      139
   17.440      151
   17.455      154
   17.470      185
   17.485      227
   17.500      233
   17.515      199
   17.530      130
   17.545       89
   17.560       71
   17.575       83
   17.590       77
   17.605       78
   17.620       79
   17.635       95
   17.650       95
   17.665      123
   17.680      117
   17.695      118
   17.710      101
   17.725      108
   17.740       97
   17.755      103
   17.770      125
   17.785       98
   17.800       90
   17.815      101
   17.830      104
   17.845       87
   17.860       74
   17.875       67
   17.890       51
   17.905       60
   17.920       69
   17.935       58
   17.950       59
   17.965       56
   17.980       52
   17.995       61
   18.010       60
   18.025       58
   18.040       63
   18.055       61
   18.070       78
   18.085       57
   18.100       48
   18.115       54
   18.130       64
   18.145       53
   18.160       71
   18.175       70
   18.190       80
   18.205       85
   18.220      109
   18.235      110
   18.250      131
   18.265      131
   18.280      139
   18.295      162
   18.310      181
   18.325      188
   18.340      142
   18.355      121
   18.370      111
   18.385       89
   18.400       75
   18.415       74
   18.430       66
   18.445       63
   18.460       71
   18.475       70
   18.490       74
   18.505       79
   18.520       91
   18.535       99
   18.550      112
   18.565      158
   18.580      162
   18.595      157
   18.610      143
   18.625      136
   18.640      140
   18.655      163
   18.670      190
   18.685      193
   18.700      199
   18.715      181
   18.730      166
   18.745      122
   18.760      100
   18.775       86
   18.790       65
   18.805       71
   18.820       66
   18.835       79
   18.850       88
   18.865      108
   18.880       92
   18.895      110
   18.910      140
   18.925      141
   18.940      138
   18.955      105
   18.970      111
   18.985      104
   19.000      107
   19.015      105
   19.030       77
   19.045       67
   19.060       69
   19.075       62
   19.090       52
   19.105       60
   19.120       52
   19.135       71
   19.150       60
   19.165       52
   19.180       54
   19.195       49
   19.210       50
   19.225       56
   19.240       52
   19.255       65
   19.270       52
   19.285       51
   19.300       48
   19.315       54
   19.330       51
   19.345       60
   19.360       61
   19.375       49
   19.390       46
   19.405       38
   19.420       43
   19.435       55
   19.450       55
   19.465       66
   19.480       67
   19.495       54
   19.510       54
   19.525       61
   19.540       64
   19.555       72
   19.570      108
   19.585      130
   19.600      146
   19.615      157
   19.630      151
   19.645      144
   19.660      146
   19.675      128
   19.690      111
   19.705       89
   19.720       74
   19.735       71
   19.750       66
   19.765       69
   19.780       85
   19.795       98
   19.810      122
   19.825      154
   19.840      200
   19.855      236
   19.870      316
   19.885      382
   19.900      427
   19.915      412
   19.930      337
   19.945      251
   19.960      178
   19.975      173
   19.990      168
   20.005      189
   20.020      228
   20.035      256
   20.050      246
   20.065      224
   20.080      196
   20.095      172
   20.110      126
   20.125       94
   20.140       89
   20.155       88
   20.170       82
   20.185       81
   20.200       76
   20.215       88
   20.230       99
   20.245      111
   20.260       95
   20.275       95
   20.290       85
   20.305       58
   20.320       53
   20.335       46
   20.350       52
   20.365       56
   20.380       62
   20.395       57
   20.410       61
   20.425       60
   20.440       56
   20.455       44
   20.470       36
   20.485       48
   20.500       52
   20.515       56
   20.530       76
   20.545       71
   20.560       72
   20.575       64
   20.590       61
   20.605       74
   20.620       77
   20.635       61
   20.650       71
   20.665       62
   20.680       66
   20.695       80
   20.710       76
   20.725       78
   20.740       94
   20.755      117
   20.770      144
   20.785      150
   20.800      171
   20.815      156
   20.830      154
   20.845      173
   20.860      177
   20.875      202
   20.890      155
   20.905      165
   20.920      139
   20.935       99
   20.950       73
   20.965       67
   20.980       58
   20.995       67
   21.010       67
   21.025       60
   21.040       55
   21.055       62
   21.070       56
   21.085       64
   21.100       52
   21.115       61
   21.130       61
   21.145       72
   21.160       78
   21.175       65
   21.190       66
   21.205       63
   21.220       77
   21.235       88
   21.250       94
   21.265       87
   21.280       89
   21.295       70
   21.310       58
   21.325       56
   21.340       54
   21.355       63
   21.370       54
   21.385       60
   21.400       48
   21.415       45
   21.430       50
   21.445       67
   21.460       69
   21.475       68
   21.490       74
   21.505       81
   21.520       93
   21.535      100
   21.550      113
   21.565      150
   21.580      164
   21.595      194
   21.610      209
   21.625      203
   21.640      171
   21.655      154
   21.670      144
   21.685      144
   21.700      135
   21.715      159
   21.730      204
   21.745      243
   21.760      341
   21.775      407
   21.790      482
   21.805      556
   21.820      477
   21.835      371
   21.850      288
   21.865      190
   21.880      141
   21.895      125
   21.910      121
   21.925      114
   21.940      104
   21.955      100
   21.970      101
   21.985       80
   22.000       64
   22.015       66
   22.030       64
   22.045       62
   22.060       63
   22.075       68
   22.090       73
   22.105       73
   22.120       67
   22.135       63
   22.150       56
   22.165       70
   22.180       66
   22.195       63
   22.210       71
   22.225       62
   22.240       73
   22.255       82
   22.270       82
   22.285       75
   22.300       92
   22.315       91
   22.330       82
   22.345       76
   22.360       76
   22.375      109
   22.390      117
   22.405      110
   22.420      118
   22.435      101
   22.450       98
   22.465       80
   22.480       63
   22.495       63
   22.510       79
   22.525       92
   22.540       93
   22.555      118
   22.570      144
   22.585      150
   22.600      169
   22.615      180
   22.630      192
   22.645      168
   22.660      148
   22.675       98
   22.690      100
   22.705       83
   22.720       90
   22.735      119
   22.750      124
   22.765      134
   22.780      140
   22.795      177
   22.810      196
   22.825      196
   22.840      225
   22.855      217
   22.870      211
   22.885      187
   22.900      166
   22.915      142
   22.930      116
   22.945       91
   22.960       90
   22.975       85
   22.990       82
   23.005       81
   23.020       79
   23.035       82
   23.050       92
   23.065      103
   23.080      100
   23.095      105
   23.110      111
   23.125      104
   23.140       84
   23.155      100
   23.170      110
   23.185      113
   23.200      131
   23.215      136
   23.230      116
   23.245       94
   23.260       83
   23.275       55
   23.290       54
   23.305       57
   23.320       68
   23.335       69
   23.350       74
   23.365       65
   23.380       72
   23.395       69
   23.410       74
   23.425       79
   23.440       76
   23.455       59
   23.470       56
   23.485       61
   23.500       49
   23.515       44
   23.530       47
   23.545       38
   23.560       49
   23.575       44
   23.590       41
   23.605       62
   23.620       51
   23.635       49
   23.650       66
   23.665       59
   23.680       60
   23.695       52
   23.710       46
   23.725       45
   23.740       50
   23.755       47
   23.770       50
   23.785       68
   23.800       61
   23.815       70
   23.830       67
   23.845       74
   23.860       79
   23.875       71
   23.890       67
   23.905       74
   23.920       65
   23.935       81
   23.950       72
   23.965       80
   23.980       88
   23.995      112
   24.010      116
   24.025       97
   24.040       93
   24.055       77
   24.070       70
   24.085       64
   24.100       60
   24.115       56
   24.130       57
   24.145       62
   24.160       69
   24.175       66
   24.190       73
   24.205       89
   24.220      100
   24.235      123
   24.250      126
   24.265      121
   24.280      109
   24.295       86
   24.310       74
   24.325       64
   24.340       62
   24.355       62
   24.370       67
   24.385       68
   24.400       60
   24.415       62
   24.430       60
   24.445       64
   24.460       62
   24.475       72
   24.490       77
   24.505       82
   24.520       84
   24.535       83
   24.550       78
   24.565       74
   24.580       92
   24.595       91
   24.610       94
   24.625       87
   24.640       87
   24.655       94
   24.670       84
   24.685       74
   24.700       63
   24.715       66
   24.730       83
   24.745       80
   24.760       78
   24.775       64
   24.790       70
   24.805       58
   24.820       62
   24.835       47
   24.850       58
   24.865       72
   24.880       70
   24.895       81
   24.910       75
   24.925       91
   24.940      103
   24.955      101
   24.970      110
   24.985      122
   25.000      105
   25.015       95
   25.030       76
   25.045       89
   25.060       83
   25.075       73
   25.090       85
   25.105       85
   25.120       75
   25.135       88
   25.150       98
   25.165      105
   25.180      101
   25.195      108
   25.210       87
   25.225       83
   25.240       81
   25.255       74
   25.270       63
   25.285       64
   25.300       60
   25.315       59
   25.330       59
   25.345       60
   25.360       73
   25.375       90
   25.390       98
   25.405      103
   25.420      112
   25.435      106
   25.450      105
   25.465       87
   25.480       96
   25.495       79
   25.510       75
   25.525       65
   25.540       81
   25.555       72
   25.570       77
   25.585       85
   25.600      119
   25.615      135
   25.630      163
   25.645      186
   25.660      213
   25.675      191
   25.690      200
   25.705      179
   25.720      137
   25.735      109
   25.750      102
   25.765       94
   25.780       90
   25.795       85
   25.810       97
   25.825      102
   25.840      104
   25.855      126
   25.870      151
   25.885      149
   25.900      138
   25.915      110
   25.930       88
   25.945       86
   25.960       82
   25.975       87
   25.990       69
   26.005       63
   26.020       77
   26.035       78
   26.050       81
   26.065       72
   26.080       81
   26.095      101
   26.110       90
   26.125       99
   26.140      112
   26.155      119
   26.170      110
   26.185      103
   26.200       78
   26.215       66
   26.230       63
   26.245       74
   26.260       84
   26.275       77
   26.290       68
   26.305       62
   26.320       70
   26.335       82
   26.350       84
   26.365       79
   26.380       76
   26.395       71
   26.410       75
   26.425       62
   26.440       55
   26.455       46
   26.470       48
   26.485       60
   26.500       49
   26.515       56
   26.530       66
   26.545       55
   26.560       67
   26.575       73
   26.590       65
   26.605       85
   26.620      111
   26.635      100
   26.650       96
   26.665       96
   26.680       84
   26.695       69
   26.710       68
   26.725       62
   26.740       63
   26.755       51
   26.770       62
   26.785       70
   26.800       66
   26.815       85
   26.830       94
   26.845       92
   26.860      113
   26.875      136
   26.890      142
   26.905      173
   26.920      168
   26.935      161
   26.950      161
   26.965      153
   26.980      140
   26.995      157
   27.010      131
   27.025      109
   27.040       88
   27.055       71
   27.070       88
   27.085       66
   27.100       73
   27.115       74
   27.130       68
   27.145       59
   27.160       67
   27.175       69
   27.190       73
   27.205       65
   27.220       68
   27.235       74
   27.250       85
   27.265       69
   27.280       58
   27.295       75
   27.310       89
   27.325       78
   27.340       91
   27.355       85
   27.370       81
   27.385       86
   27.400       96
   27.415       94
   27.430       92
   27.445      122
   27.460      120
   27.475      116
   27.490      130
   27.505      130
   27.520      130
   27.535      141
   27.550      146
   27.565      148
   27.580      173
   27.595      171
   27.610      153
   27.625      169
   27.640      160
   27.655      126
   27.670      116
   27.685      117
   27.700      108
   27.715      105
   27.730       86
   27.745       88
   27.760       87
   27.775       78
   27.790       84
   27.805       94
   27.820      127
   27.835      127
   27.850      124
   27.865      128
   27.880      133
   27.895      133
   27.910      106
   27.925       85
   27.940       91
   27.955       93
   27.970       84
   27.985       69
   28.000       68
   28.015       64
   28.030       51
   28.045       74
   28.060       79
   28.075       83
   28.090       73
   28.105       81
   28.120      107
   28.135       79
   28.150       80
   28.165       89
   28.180       99
   28.195       88
   28.210       87
   28.225       89
   28.240       88
   28.255       92
   28.270       85
   28.285       80
   28.300      105
   28.315      109
   28.330       93
   28.345       84
   28.360       82
   28.375       88
   28.390       89
   28.405       91
   28.420       92
   28.435       77
   28.450       68
   28.465       63
   28.480       68
   28.495       65
   28.510       61
   28.525       63
   28.540       46
   28.555       49
   28.570       60
   28.585       66
   28.600       66
   28.615       54
   28.630       62
   28.645       77
   28.660       66
   28.675       85
   28.690       83
   28.705       71
   28.720       64
   28.735       67
   28.750       74
   28.765       82
   28.780       70
   28.795       71
   28.810       77
   28.825       71
   28.840       82
   28.855       83
   28.870       88
   28.885       96
   28.900      106
   28.915      104
   28.930      102
   28.945       91
   28.960      102
   28.975       99
   28.990       98
   29.005       87
   29.020      106
   29.035      115
   29.050      100
   29.065       92
   29.080       95
   29.095      105
   29.110       96
   29.125       84
   29.140       78
   29.155       78
   29.170       78
   29.185       86
   29.200       89
   29.215       84
   29.230       85
   29.245       75
   29.260       67
   29.275       69
   29.290       67
   29.305       66
   29.320       72
   29.335       63
   29.350       65
   29.365       65
   29.380       56
   29.395       65
   29.410       69
   29.425       74
   29.440       69
   29.455       68
   29.470       83
   29.485       81
   29.500       79
   29.515       87
   29.530       94
   29.545       94
   29.560       95
   29.575       78
   29.590       76
   29.605       98
   29.620       94
   29.635      133
   29.650      124
   29.665      116
   29.680      131
   29.695      107
   29.710      106
   29.725      101
   29.740      100
   29.755       83
   29.770       81
   29.785       88
   29.800       82
   29.815       67
   29.830       61
   29.845       69
   29.860       84
   29.875       89
   29.890       59
   29.905       67
   29.920       64
   29.935       59
   29.950       49
   29.965       52
   29.980       67
   29.995       65
   30.010       63
   30.025       58
   30.040       72
   30.055       64
   30.070       81
   30.085       72
   30.100       58
   30.115       59
   30.130       52
   30.145       60
   30.160       64
   30.175       57
   30.190       65
   30.205       68
   30.220       56
   30.235       57
   30.250       71
   30.265       64
   30.280       71
   30.295       81
   30.310       70
   30.325       66
   30.340       74
   30.355       80
   30.370       82
   30.385       64
   30.400       70
   30.415       76
   30.430       72
   30.445       61
   30.460       63
   30.475       77
   30.490       83
   30.505       88
   30.520       79
   30.535       78
   30.550       83
   30.565       84
   30.580       96
   30.595      101
   30.610      105
   30.625      102
   30.640       83
   30.655       93
   30.670       72
   30.685       75
   30.700       77
   30.715       71
   30.730       51
   30.745       51
   30.760       50
   30.775       47
   30.790       51
   30.805       53
   30.820       61
   30.835       66
   30.850       53
   30.865       62
   30.880       92
   30.895       78
   30.910       83
   30.925      113
   30.940      112
   30.955      104
   30.970      110
   30.985      103
   31.000       99
   31.015      104
   31.030       90
   31.045       93
   31.060       83
   31.075       70
   31.090       81
   31.105       90
   31.120       89
   31.135       82
   31.150       79
   31.165       76
   31.180       75
   31.195       84
   31.210       82
   31.225       72
   31.240       68
   31.255       65
   31.270       70
   31.285       74
   31.300       75
   31.315       74
   31.330       94
   31.345       94
   31.360       98
   31.375       95
   31.390       83
   31.405       91
   31.420       81
   31.435       69
   31.450       82
   31.465       79
   31.480       80
   31.495       70
   31.510       90
   31.525       93
   31.540      100
   31.555      110
   31.570      104
   31.585       98
   31.600       97
   31.615       90
   31.630       88
   31.645       84
   31.660       81
   31.675       79
   31.690       92
   31.705      114
   31.720      104
   31.735       98
   31.750       97
   31.765       84
   31.780       80
   31.795       83
   31.810       91
   31.825       95
   31.840      102
   31.855      112
   31.870      115
   31.885      104
   31.900      101
   31.915       94
   31.930       83
   31.945       74
   31.960       91
   31.975       87
   31.990       86
   32.005       79
   32.020       72
   32.035       73
   32.050       84
   32.065       98
   32.080       92
   32.095       90
   32.110       90
   32.125       81
   32.140       80
   32.155       86
   32.170       78
   32.185       65
   32.200       64
   32.215       63
   32.230       79
   32.245       70
   32.260       64
   32.275       67
   32.290       70
   32.305       69
   32.320       65
   32.335       71
   32.350       75
   32.365       62
   32.380       60
   32.395       72
   32.410       61
   32.425       59
   32.440       64
   32.455       63
   32.470       58
   32.485       61
   32.500       70
   32.515       62
   32.530       57
   32.545       64
   32.560       56
   32.575       60
   32.590       72
   32.605       47
   32.620       60
   32.635       63
   32.650       67
   32.665       66
   32.680       64
   32.695       58
   32.710       68
   32.725       66
   32.740       65
   32.755       54
   32.770       53
   32.785       59
   32.800       77
   32.815       73
   32.830       71
   32.845       68
   32.860       66
   32.875       76
   32.890       77
   32.905       90
   32.920      114
   32.935      107
   32.950      106
   32.965      106
   32.980       92
   32.995      102
   33.010       95
   33.025       85
   33.040       88
   33.055       59
   33.070       71
   33.085       66
   33.100       71
   33.115       73
   33.130       67
   33.145       63
   33.160       68
   33.175       71
   33.190       79
   33.205       72
   33.220       64
   33.235       85
   33.250       87
   33.265       71
   33.280       72
   33.295       67
   33.310       73
   33.325       77
   33.340       81
   33.355       93
   33.370       85
   33.385       88
   33.400       77
   33.415       92
   33.430       95
   33.445       98
   33.460      108
   33.475      128
   33.490      111
   33.505      119
   33.520      114
   33.535      103
   33.550       95
   33.565       94
   33.580       79
   33.595       83
   33.610       82
   33.625       85
   33.640       75
   33.655       71
   33.670       69
   33.685       70
   33.700       85
   33.715       80
   33.730       81
   33.745       87
   33.760       91
   33.775      104
   33.790      125
   33.805      126
   33.820      101
   33.835      106
   33.850       92
   33.865       85
   33.880       82
   33.895       80
   33.910       76
   33.925       74
   33.940       79
   33.955       81
   33.970       96
   33.985       96
   34.000       87
   34.015      102
   34.030       84
   34.045       87
   34.060      102
   34.075       82
   34.090       71
   34.105       78
   34.120       85
   34.135       84
   34.150       79
   34.165       66
   34.180       77
   34.195       74
   34.210       68
   34.225       68
   34.240       70
   34.255       51
   34.270       70
   34.285       67
   34.300       70
   34.315       70
   34.330       68
   34.345       61
   34.360       65
   34.375       57
   34.390       70
   34.405       79
   34.420       67
   34.435       87
   34.450       78
   34.465       82
   34.480       84
   34.495       72
   34.510       67
   34.525       84
   34.540       79
   34.555       77
   34.570       74
   34.585       64
   34.600       53
   34.615       69
   34.630       60
   34.645       62
   34.660       74
   34.675       65
   34.690       57
   34.705       71
   34.720       67
   34.735       65
   34.750       69
   34.765       76
   34.780       64
   34.795       71
   34.810       69
   34.825       75
   34.840       60
   34.855       59
   34.870       75
   34.885       75
   34.900       62
   34.915       72
   34.930       75
   34.945       84
   34.960       85
   34.975       71
   34.990       75
   35.005       76
   35.020       70
   35.035       76
   35.050       81
   35.065       95
   35.080       95
   35.095       72
   35.110       73
   35.125       80
   35.140       87
   35.155      102
   35.170       79
   35.185       81
   35.200       72
   35.215       86
   35.230       92
   35.245       81
   35.260       90
   35.275       96
   35.290      104
   35.305       97
   35.320       96
   35.335      119
   35.350       89
   35.365       84
   35.380       99
   35.395      105
   35.410      108
   35.425      103
   35.440      121
   35.455      110
   35.470      116
   35.485      110
   35.500       98
   35.515      114
   35.530      100
   35.545      106
   35.560      115
   35.575      123
   35.590      123
   35.605      133
   35.620      112
   35.635      104
   35.650      101
   35.665      112
   35.680       96
   35.695       86
   35.710       92
   35.725       87
   35.740       66
   35.755       68
   35.770       56
   35.785       57
   35.800       56
   35.815       60
   35.830       62
   35.845       59
   35.860       72
   35.875       71
   35.890       56
   35.905       63
   35.920       63
   35.935       65
   35.950       67
   35.965       60
   35.980       65
   35.995       59
   36.010       77
   36.025       67
   36.040       66
   36.055       76
   36.070       60
   36.085       75
   36.100       48
   36.115       57
   36.130       72
   36.145       64
   36.160       55
   36.175       57
   36.190       69
   36.205       68
   36.220       78
   36.235       83
   36.250       90
   36.265       87
   36.280       80
   36.295       87
   36.310       74
   36.325       71
   36.340       63
   36.355       80
   36.370       71
   36.385       60
   36.400       65
   36.415       70
   36.430       58
   36.445       55
   36.460       62
   36.475       62
   36.490       66
   36.505       60
   36.520       74
   36.535       62
   36.550       67
   36.565       71
   36.580       68
   36.595       61
   36.610       65
   36.625       52
   36.640       52
   36.655       57
   36.670       58
   36.685       71
   36.700       79
   36.715       79
   36.730       80
   36.745       90
   36.760       79
   36.775       74
   36.790       67
   36.805       72
   36.820       60
   36.835       59
   36.850       71
   36.865       71
   36.880       58
   36.895       65
   36.910       66
   36.925       63
   36.940       70
   36.955       86
   36.970       78
   36.985       68
   37.000       86
   37.015       81
   37.030       72
   37.045       74
   37.060       77
   37.075       82
   37.090       68
   37.105       77
   37.120       72
   37.135       64
   37.150       66
   37.165       59
   37.180       64
   37.195       68
   37.210       75
   37.225       74
   37.240       71
   37.255       89
   37.270       76
   37.285       87
   37.300       85
   37.315       69
   37.330       55
   37.345       73
   37.360       66
   37.375       64
   37.390       59
   37.405       74
   37.420       50
   37.435       55
   37.450       53
   37.465       54
   37.480       56
   37.495       55
   37.510       51
   37.525       51
   37.540       59
   37.555       52
   37.570       67
   37.585       68
   37.600       59
   37.615       56
   37.630       65
   37.645       64
   37.660       62
   37.675       59
   37.690       67
   37.705       63
   37.720       54
   37.735       55
   37.750       54
   37.765       56
   37.780       71
   37.795       68
   37.810       69
   37.825       76
   37.840       66
   37.855       64
   37.870       64
   37.885       58
   37.900       66
   37.915       79
   37.930       70
   37.945       65
   37.960       73
   37.975       77
   37.990       72
   38.005       75
   38.020       80
   38.035       77
   38.050       78
   38.065       65
   38.080       61
   38.095       54
   38.110       64
   38.125       61
   38.140       61
   38.155       80
   38.170       72
   38.185       75
   38.200       68
   38.215       76
   38.230       62
   38.245       72
   38.260       64
   38.275       69
   38.290       68
   38.305       68
   38.320       60
   38.335       82
   38.350       80
   38.365       86
   38.380      106
   38.395      101
   38.410       75
   38.425       69
   38.440       65
   38.455       66
   38.470       67
   38.485       60
   38.500       68
   38.515       59
   38.530       68
   38.545       66
   38.560       68
   38.575       66
   38.590       75
   38.605       63
   38.620       68
   38.635       76
   38.650       71
   38.665       59
   38.680       71
   38.695       69
   38.710       64
   38.725       68
   38.740       81
   38.755       73
   38.770       49
   38.785       58
   38.800       60
   38.815       63
   38.830       66
   38.845       69
   38.860       87
   38.875       76
   38.890       65
   38.905       73
   38.920       65
   38.935       70
   38.950       70
   38.965       70
   38.980       55
   38.995       63
   39.010       76
   39.025       65
   39.040       54
   39.055       62
   39.070       60
   39.085       52
   39.100       62
   39.115       67
   39.130       77
   39.145       57
   39.160       52
   39.175       57
   39.190       61
   39.205       67
   39.220       56
   39.235       67
   39.250       62
   39.265       55
   39.280       49
   39.295       64
   39.310       62
   39.325       52
   39.340       54
   39.355       67
   39.370       56
   39.385       44
   39.400       45
   39.415       50
   39.430       50
   39.445       59
   39.460       51
   39.475       55
   39.490       56
   39.505       57
   39.520       49
   39.535       64
   39.550       57
   39.565       49
   39.580       53
   39.595       61
   39.610       57
   39.625       61
   39.640       56
   39.655       63
   39.670       58
   39.685       67
   39.700       72
   39.715       75
   39.730       67
   39.745       66
   39.760       60
   39.775       65
   39.790       79
   39.805       68
   39.820       63
   39.835       64
   39.850       65
   39.865       67
   39.880       66
   39.895       68
   39.910       75
   39.925       64
   39.940       61
   39.955       66
   39.970       64
   39.985       68
   40.000       59
   40.015       57
   40.030       59
   40.045       62
   40.060       62
   40.075       47
   40.090       50
   40.105       57
   40.120       54
   40.135       63
   40.150       54
   40.165       65
   40.180       68
   40.195       69
   40.210       65
   40.225       58
   40.240       50
   40.255       54
   40.270       51
   40.285       59
   40.300       51
   40.315       64
   40.330       64
   40.345       68
   40.360       70
   40.375       66
   40.390       71
   40.405       69
   40.420       68
   40.435       63
   40.450       66
   40.465       55
   40.480       76
   40.495       77
   40.510       79
   40.525       80
   40.540       69
   40.555       65
   40.570       61
   40.585       62
   40.600       64
   40.615       71
   40.630       66
   40.645       69
   40.660       59
   40.675       75
   40.690       67
   40.705       78
   40.720       79
   40.735       74
   40.750       66
   40.765       80
   40.780       90
   40.795       79
   40.810       73
   40.825       78
   40.840       83
   40.855       75
   40.870       71
   40.885       66
   40.900       73
   40.915       69
   40.930       64
   40.945       69
   40.960       60
   40.975       63
   40.990       56
   41.005       56
   41.020       57
   41.035       68
   41.050       54
   41.065       62
   41.080       58
   41.095       53
   41.110       60
   41.125       56
   41.140       64
   41.155       68
   41.170       71
   41.185       73
   41.200       69
   41.215       63
   41.230       61
   41.245       56
   41.260       58
   41.275       63
   41.290       60
   41.305       47
   41.320       55
   41.335       59
   41.350       57
   41.365       52
   41.380       57
   41.395       48
   41.410       51
   41.425       57
   41.440       64
   41.455       69
   41.470       59
   41.485       59
   41.500       66
   41.515       61
   41.530       64
   41.545       66
   41.560       60
   41.575       51
   41.590       62
   41.605       50
   41.620       59
   41.635       76
   41.650       56
   41.665       51
   41.680       60
   41.695       60
   41.710       72
   41.725       56
   41.740       58
   41.755       68
   41.770       57
   41.785       66
   41.800       63
   41.815       65
   41.830       71
   41.845       57
   41.860       69
   41.875       65
   41.890       75
   41.905       73
   41.920       54
   41.935       62
   41.950       60
   41.965       58
   41.980       67
   41.995       63
   42.010       67
   42.025       65
   42.040       59
   42.055       67
   42.070       68
   42.085       65
   42.100       66
   42.115       65
   42.130       67
   42.145       62
   42.160       63
   42.175       57
   42.190       63
   42.205       66
   42.220       63
   42.235       57
   42.250       52
   42.265       58
   42.280       61
   42.295       62
   42.310       57
   42.325       50
   42.340       63
   42.355       76
   42.370       76
   42.385       70
   42.400       60
   42.415       71
   42.430       64
   42.445       67
   42.460       75
   42.475       77
   42.490       62
   42.505       68
   42.520       64
   42.535       64
   42.550       69
   42.565       63
   42.580       67
   42.595       58
   42.610       58
   42.625       57
   42.640       59
   42.655       58
   42.670       58
   42.685       51
   42.700       67
   42.715       64
   42.730       60
   42.745       62
   42.760       73
   42.775       61
   42.790       52
   42.805       59
   42.820       55
   42.835       52
   42.850       60
   42.865       46
   42.880       50
   42.895       57
   42.910       55
   42.925       43
   42.940       45
   42.955       49
   42.970       43
   42.985       62
   43.000       55
   43.015       55
   43.030       57
   43.045       46
   43.060       65
   43.075       61
   43.090       58
   43.105       60
   43.120       67
   43.135       48
   43.150       56
   43.165       62
   43.180       66
   43.195       57
   43.210       45
   43.225       61
   43.240       64
   43.255       56
   43.270       49
   43.285       56
   43.300       48
   43.315       58
   43.330       53
   43.345       47
   43.360       48
   43.375       55
   43.390       53
   43.405       57
   43.420       44
   43.435       49
   43.450       53
   43.465       47
   43.480       62
   43.495       59
   43.510       46
   43.525       55
   43.540       58
   43.555       61
   43.570       63
   43.585       64
   43.600       64
   43.615       55
   43.630       51
   43.645       53
   43.660       60
   43.675       53
   43.690       57
   43.705       61
   43.720       54
   43.735       64
   43.750       58
   43.765       55
   43.780       59
   43.795       57
   43.810       58
   43.825       62
   43.840       52
   43.855       57
   43.870       63
   43.885       60
   43.900       60
   43.915       64
   43.930       65
   43.945       70
   43.960       71
   43.975       71
   43.990       56
   44.005       55
   44.020       56
   44.035       59
   44.050       63
   44.065       55
   44.080       63
   44.095       59
   44.110       69
   44.125       75
   44.140       60
   44.155       60
   44.170       54
   44.185       63
   44.200       70
   44.215       58
   44.230       64
   44.245       63
   44.260       65
   44.275       60
   44.290       40
   44.305       47
   44.320       53
   44.335       43
   44.350       58
   44.365       55
   44.380       49
   44.395       55
   44.410       58
   44.425       62
   44.440       60
   44.455       68
   44.470       61
   44.485       67
   44.500       70
   44.515       58
   44.530       71
   44.545       67
   44.560       63
   44.575       51
   44.590       47
   44.605       59
   44.620       66
   44.635       66
   44.650       54
   44.665       61
   44.680       74
   44.695       69
   44.710       73
   44.725       74
   44.740       65
   44.755       74
   44.770       67
   44.785       64
   44.800       63
   44.815       74
   44.830       50
   44.845       59
   44.860       62
   44.875       66
   44.890       60
   44.905       48
   44.920       60
   44.935       62
   44.950       58
   44.965       52
   44.980       75
   44.995       71
   45.010       73
   45.025       63
   45.040       79
   45.055       77
   45.070       85
   45.085       73
   45.100       72
   45.115       71
   45.130       78
   45.145       64
   45.160       62
   45.175       80
   45.190       65
   45.205       72
   45.220       61
   45.235       55
   45.250       59
   45.265       60
   45.280       62
   45.295       56
   45.310       64
   45.325       61
   45.340       71
   45.355       63
   45.370       56
   45.385       65
   45.400       56
   45.415       59
   45.430       53
   45.445       74
   45.460       68
   45.475       62
   45.490       60
   45.505       63
   45.520       64
   45.535       65
   45.550       57
   45.565       66
   45.580       62
   45.595       48
   45.610       55
   45.625       62
   45.640       58
   45.655       51
   45.670       52
   45.685       53
   45.700       57
   45.715       60
   45.730       58
   45.745       60
   45.760       61
   45.775       52
   45.790       57
   45.805       56
   45.820       55
   45.835       50
   45.850       56
   45.865       55
   45.880       53
   45.895       64
   45.910       56
   45.925       52
   45.940       55
   45.955       63
   45.970       62
   45.985       72
