    4.000       47
    4.015       59
    4.030       52
    4.045       57
    4.060       50
    4.075       49
    4.090       49
    4.105       46
    4.120       46
    4.135       46
    4.150       46
    4.165       52
    4.180       39
    4.195       45
    4.210       59
    4.225       59
    4.240       51
    4.255       52
    4.270       60
    4.285       46
    4.300       55
    4.315       58
    4.330       54
    4.345       56
    4.360       43
    4.375       42
    4.390       41
    4.405       44
    4.420       44
    4.435       53
    4.450       53
    4.465       55
    4.480       60
    4.495       58
    4.510       52
    4.525       51
    4.540       47
    4.555       62
    4.570       59
    4.585       45
    4.600       43
    4.615       52
    4.630       47
    4.645       50
    4.660       49
    4.675       49
    4.690       45
    4.705       44
    4.720       39
    4.735       49
    4.750       49
    4.765       60
    4.780       53
    4.795       52
    4.810       39
    4.825       39
    4.840       50
    4.855       50
    4.870       57
    4.885       53
    4.900       46
    4.915       60
    4.930       55
    4.945       56
    4.960       52
    4.975       45
    4.990       50
    5.005       50
    5.020       47
    5.035       47
    5.050       42
    5.065       49
    5.080       48
    5.095       53
    5.110       49
    5.125       45
    5.140       51
    5.155       53
    5.170       54
    5.185       47
    5.200       40
    5.215       37
    5.230       42
    5.245       53
    5.260       52
    5.275       57
    5.290       60
    5.305       56
    5.320       56
    5.335       46
    5.350       47
    5.365       52
    5.380       52
    5.395       55
    5.410       50
    5.425       46
    5.440       54
    5.455       55
    5.470       45
    5.485       50
    5.500       64
    5.515       65
    5.530       54
    5.545       60
    5.560       61
    5.575       53
    5.590       40
    5.605       44
    5.620       56
    5.635       45
    5.650       38
    5.665       48
    5.680       44
    5.695       42
    5.710       43
    5.725       51
    5.740       56
    5.755       36
    5.770       43
    5.785       33
    5.800       40
    5.815       40
    5.830       41
    5.845       52
    5.860       40
    5.875       42
    5.890       57
    5.905       52
    5.920       45
    5.935       56
    5.950       49
    5.965       51
    5.980       43
    5.995       42
    6.010       44
    6.025       51
    6.040       51
    6.055       64
    6.070       40
    6.085       47
    6.100       54
    6.115       48
    6.130       56
    6.145       51
    6.160       51
    6.175       50
    6.190       55
    6.205       57
    6.220       59
    6.235       51
    6.250       56
    6.265       50
    6.280       71
    6.295       64
    6.310       66
    6.325       64
    6.340       65
    6.355       70
    6.370       61
    6.385       66
    6.400       76
    6.415       80
    6.430       83
    6.445       77
    6.460       88
    6.475      100
    6.490      119
    6.505      115
    6.520      130
    6.535      122
    6.550      146
    6.565      168
    6.580      207
    6.595      198
    6.610      185
    6.625      202
    6.640      207
    6.655      184
    6.670      128
    6.685       94
    6.700       65
    6.715       43
    6.730       46
    6.745       52
    6.760       41
    6.775       46
    6.790       47
    6.805       46
    6.820       56
    6.835       63
    6.850       43
    6.865       48
    6.880       53
    6.895       38
    6.910       37
    6.925       48
    6.940       50
    6.955       53
    6.970       47
    6.985       54
    7.000       57
    7.015       51
    7.030       57
    7.045       67
    7.060       72
    7.075       57
    7.090       71
    7.105       69
    7.120       81
    7.135       87
    7.150       98
    7.165      109
    7.180       94
    7.195       71
    7.210       54
    7.225       49
    7.240       52
    7.255       52
    7.270       59
    7.285       53
    7.300       50
    7.315       40
    7.330       48
    7.345       50
    7.360       53
    7.375       50
    7.390       46
    7.405       45
    7.420       48
    7.435       41
    7.450       40
    7.465       43
    7.480       43
    7.495       45
    7.510       42
    7.525       40
    7.540       54
    7.555       49
    7.570       48
    7.585       51
    7.600       50
    7.615       45
    7.630       53
    7.645       45
    7.660       48
    7.675       44
    7.690       38
    7.705       46
    7.720       51
    7.735       54
    7.750       48
    7.765       42
    7.780       40
    7.795       48
    7.810       43
    7.825       39
    7.840       50
    7.855       46
    7.870       40
    7.885       44
    7.900       42
    7.915       49
    7.930       50
    7.945       50
    7.960       50
    7.975       51
    7.990       41
    8.005       40
    8.020       43
    8.035       41
    8.050       37
    8.065       40
    8.080       43
    8.095       50
    8.110       48
    8.125       56
    8.140       47
    8.155       48
    8.170       51
    8.185       52
    8.200       52
    8.215       38
    8.230       42
    8.245       44
    8.260       44
    8.275       42
    8.290       48
    8.305       54
    8.320       52
    8.335       53
    8.350       39
    8.365       45
    8.380       45
    8.395       51
    8.410       46
    8.425       41
    8.440       45
    8.455       42
    8.470       54
    8.485       45
    8.500       53
    8.515       46
    8.530       46
    8.545       46
    8.560       44
    8.575       43
    8.590       46
    8.605       43
    8.620       50
    8.635       39
    8.650       45
    8.665       39
    8.680       48
    8.695       45
    8.710       51
    8.725       59
    8.740       55
    8.755       53
    8.770       48
    8.785       53
    8.800       51
    8.815       43
    8.830       52
    8.845       39
    8.860       48
    8.875       50
    8.890       45
    8.905       44
    8.920       51
    8.935       51
    8.950       58
    8.965       49
    8.980       44
    8.995       48
    9.010       50
    9.025       44
    9.040       57
    9.055       42
    9.070       49
    9.085       44
    9.100       51
    9.115       54
    9.130       48
    9.145       38
    9.160       44
    9.175       39
    9.190       49
    9.205       51
    9.220       52
    9.235       54
    9.250       53
    9.265       45
    9.280       37
    9.295       52
    9.310       52
    9.325       60
    9.340       58
    9.355       55
    9.370       55
    9.385       57
    9.400       45
    9.415       37
    9.430       48
    9.445       46
    9.460       45
    9.475       52
    9.490       48
    9.505       51
    9.520       46
    9.535       43
    9.550       51
    9.565       53
    9.580       41
    9.595       44
    9.610       50
    9.625       49
    9.640       54
    9.655       59
    9.670       52
    9.685       54
    9.700       53
    9.715       51
    9.730       63
    9.745       60
    9.760       55
    9.775       65
    9.790       61
    9.805       57
    9.820       52
    9.835       48
    9.850       44
    9.865       41
    9.880       51
    9.895       50
    9.910       59
    9.925       53
    9.940       48
    9.955       47
    9.970       51
    9.985       56
   10.000       51
   10.015       46
   10.030       48
   10.045       43
   10.060       48
   10.075       51
   10.090       52
   10.105       45
   10.120       44
   10.135       45
   10.150       47
   10.165       52
   10.180       54
   10.195       65
   10.210       51
   10.225       55
   10.240       41
   10.255       47
   10.270       59
   10.285       59
   10.300       60
   10.315       59
   10.330       51
   10.345       62
   10.360       68
   10.375       64
   10.390       66
   10.405       84
   10.420       74
   10.435       88
   10.450       92
   10.465       86
   10.480       60
   10.495       55
   10.510       48
   10.525       50
   10.540       54
   10.555       54
   10.570       57
   10.585       47
   10.600       67
   10.615       56
   10.630       54
   10.645       65
   10.660       56
   10.675       58
   10.690       72
   10.705       84
   10.720       85
   10.735       78
   10.750       70
   10.765       77
   10.780       82
   10.795      103
   10.810      132
   10.825      139
   10.840      128
   10.855      112
   10.870       77
   10.885       66
   10.900       57
   10.915       44
   10.930       47
   10.945       67
   10.960       65
   10.975       58
   10.990       48
   11.005       44
   11.020       47
   11.035       51
   11.050       59
   11.065       52
   11.080       44
   11.095       64
   11.110       62
   11.125       67
   11.140       70
   11.155       69
   11.170       82
   11.185       89
   11.200      111
   11.215      114
   11.230       92
   11.245       76
   11.260       59
   11.275       58
   11.290       66
   11.305       55
   11.320       61
   11.335       56
   11.350       60
   11.365       58
   11.380       64
   11.395       70
   11.410       63
   11.425       65
   11.440       56
   11.455       44
   11.470       57
   11.485       50
   11.500       53
   11.515       47
   11.530       54
   11.545       44
   11.560       43
   11.575       47
   11.590       45
   11.605       56
   11.620       62
   11.635       58
   11.650       56
   11.665       56
   11.680       53
   11.695       49
   11.710       55
   11.725       50
   11.740       57
   11.755       63
   11.770       43
   11.785       61
   11.800       62
   11.815       69
   11.830       71
   11.845       73
   11.860       79
   11.875       75
   11.890       62
   11.905       52
   11.920       63
   11.935       52
   11.950       48
   11.965       57
   11.980       46
   11.995       63
   12.010       69
   12.025       59
   12.040       71
   12.055       68
   12.070       61
   12.085       55
   12.100       64
   12.115       59
   12.130       51
   12.145       55
   12.160       45
   12.175       49
   12.190       48
   12.205       55
   12.220       46
   12.235       56
   12.250       54
   12.265       60
   12.280       54
   12.295       41
   12.310       57
   12.325       60
   12.340       54
   12.355       58
   12.370       68
   12.385       62
   12.400       63
   12.415       60
   12.430       64
   12.445       70
   12.460       69
   12.475      100
   12.490      117
   12.505      126
   12.520      138
   12.535      134
   12.550      157
   12.565      186
   12.580      219
   12.595      268
   12.610      341
   12.625      421
   12.640      461
   12.655      432
   12.670      342
   12.685      260
   12.700      295
   12.715      292
   12.730      284
   12.745      262
   12.760      196
   12.775      123
   12.790       82
   12.805       65
   12.820       61
   12.835       63
   12.850       63
   12.865       67
   12.880       68
   12.895       79
   12.910       83
   12.925      109
   12.940      103
   12.955       96
   12.970      120
   12.985      148
   13.000      192
   13.015      241
   13.030      243
   13.045      206
   13.060      178
   13.075      156
   13.090      142
   13.105      157
   13.120      165
   13.135      219
   13.150      272
   13.165      365
   13.180      448
   13.195      589
   13.210      670
   13.225      585
   13.240      477
   13.255      459
   13.270      508
   13.285      602
   13.300      794
   13.315     1074
   13.330     1088
   13.345      877
   13.360      579
   13.375      369
   13.390      185
   13.405      128
   13.420      132
   13.435      145
   13.450      120
   13.465      134
   13.480      155
   13.495      179
   13.510      196
   13.525      242
   13.540      263
   13.555      287
   13.570      301
   13.585      293
   13.600      298
   13.615      227
   13.630      168
   13.645      115
   13.660       80
   13.675       74
   13.690       74
   13.705       73
   13.720       78
   13.735       79
   13.750       74
   13.765       76
   13.780       74
   13.795       84
   13.810       89
   13.825      112
   13.840      114
   13.855       97
   13.870       78
   13.885       72
   13.900       70
   13.915       56
   13.930       58
   13.945       55
   13.960       59
   13.975       60
   13.990       53
   14.005       56
   14.020       59
   14.035       61
   14.050       65
   14.065       71
   14.080       59
   14.095       54
   14.110       64
   14.125       68
   14.140       69
   14.155       58
   14.170       61
   14.185       81
   14.200       90
   14.215       99
   14.230      113
   14.245      129
   14.260      145
   14.275      164
   14.290      165
   14.305      157
   14.320      158
   14.335      124
   14.350      140
   14.365      186
   14.380      199
   14.395      176
   14.410      169
   14.425      170
   14.440      172
   14.455      192
   14.470      229
   14.485      289
   14.500      285
   14.515      246
   14.530      163
   14.545      108
   14.560       73
   14.575       68
   14.590       61
   14.605       71
   14.620       66
   14.635       65
   14.650       61
   14.665       58
   14.680       80
   14.695       79
   14.710       73
   14.725       65
   14.740       61
   14.755       67
   14.770       71
   14.785       59
   14.800       59
   14.815       74
   14.830       55
   14.845       74
   14.860       68
   14.875       82
   14.890      103
   14.905      118
   14.920      138
   14.935      140
   14.950      163
   14.965      202
   14.980      253
   14.995      295
   15.010      344
   15.025      338
   15.040      397
   15.055      528
   15.070      675
   15.085      710
   15.100      661
   15.115      503
   15.130      302
   15.145      198
   15.160      137
   15.175      105
   15.190      112
   15.205      123
   15.220      120
   15.235      126
   15.250      147
   15.265      176
   15.280      206
   15.295      218
   15.310      256
   15.325      229
   15.340      195
   15.355      156
   15.370      157
   15.385      143
   15.400      139
   15.415      116
   15.430      101
   15.445       99
   15.460      107
   15.475      115
   15.490      112
   15.505      127
   15.520      146
   15.535      157
   15.550      191
   15.565      251
   15.580      307
   15.595      304
   15.610      228
   15.625      170
   15.640      143
   15.655      126
   15.670      118
   15.685      109
   15.700      118
   15.715      143
   15.730      168
   15.745      205
   15.760      238
   15.775      226
   15.790      216
   15.805      185
   15.820      145
   15.835      100
   15.850       74
   15.865       73
   15.880       73
   15.895       65
   15.910       61
   15.925       61
   15.940       68
   15.955       80
   15.970       89
   15.985       89
   16.000      102
   16.015      117
   16.030      144
   16.045      152
   16.060      193
   16.075      237
   16.090      239
   16.105      301
   16.120      329
   16.135      313
   16.150      230
   16.165      183
   16.180      140
   16.195       92
   16.210       95
   16.225      107
   16.240      120
   16.255      115
   16.270      130
   16.285      142
   16.300      192
   16.315      176
   16.330      200
   16.345      204
   16.360      226
   16.375      260
   16.390      293
   16.405      372
   16.420      400
   16.435      410
   16.450      334
   16.465      235
   16.480      202
   16.495      207
   16.510      235
   16.525      285
   16.540      345
   16.555      310
   16.570      286
   16.585      255
   16.600      202
   16.615      191
   16.630      166
   16.645      189
   16.660      226
   16.675      293
   16.690      335
   16.705      317
   16.720      279
   16.735      269
   16.750      261
   16.765      260
   16.780      282
   16.795      291
   16.810      283
   16.825      244
   16.840      169
   16.855      135
   16.870      104
   16.885       92
   16.900       82
   16.915       95
   16.930       87
   16.945       98
   16.960      117
   16.975      132
   16.990      159
   17.005      180
   17.020      192
   17.035      192
   17.050      158
   17.065      143
   17.080      107
   17.095      113
   17.110      122
   17.125      132
   17.140      143
   17.155      147
   17.170      181
   17.185      242
   17.200      235
   17.215      254
   17.230      263
   17.245      216
   17.260      171
   17.275      132
   17.290      120
   17.305      126
   17.320      114
   17.335      110
   17.350       97
   17.365      109
   17.380      110
   17.395      126
   17.410      144
   17.425      164
   17.440      195
   17.455      219
   17.470      228
   17.485      191
   17.500      147
   17.515      105
   17.530       96
   17.545       91
   17.560       76
   17.575       76
   17.590       88
   17.605      101
   17.620      101
   17.635      115
   17.650      127
   17.665      105
   17.680      130
   17.695      102
   17.710      102
   17.725      106
   17.740      121
   17.755      112
   17.770      101
   17.785      104
   17.800       96
   17.815       80
   17.830       94
   17.845       87
   17.860       62
   17.875       84
   17.890       73
   17.905       72
   17.920       64
   17.935       63
   17.950       70
   17.965       71
   17.980       74
   17.995       73
   18.010       68
   18.025       48
   18.040       67
   18.055       64
   18.070       62
   18.085       65
   18.100       78
   18.115       65
   18.130       73
   18.145       73
   18.160       86
   18.175       80
   18.190       93
   18.205      118
   18.220      126
   18.235      137
   18.250      159
   18.265      171
   18.280      183
   18.295      195
   18.310      166
   18.325      139
   18.340       97
   18.355       88
   18.370       74
   18.385       70
   18.400       77
   18.415       62
   18.430       66
   18.445       68
   18.460       85
   18.475       84
   18.490       89
   18.505       98
   18.520      112
   18.535      123
   18.550      136
   18.565      165
   18.580      146
   18.595      123
   18.610      134
   18.625      155
   18.640      157
   18.655      179
   18.670      202
   18.685      192
   18.700      176
   18.715      141
   18.730      112
   18.745      102
   18.760       94
   18.775       81
   18.790       79
   18.805       88
   18.820       85
   18.835      112
   18.850      117
   18.865      145
   18.880      145
   18.895      143
   18.910      134
   18.925      141
   18.940      110
   18.955      119
   18.970      107
   18.985       89
   19.000       79
   19.015       82
   19.030       70
   19.045       69
   19.060       89
   19.075       82
   19.090       78
   19.105       71
   19.120       79
   19.135       64
   19.150       73
   19.165       70
   19.180       69
   19.195       69
   19.210       70
   19.225       81
   19.240       71
   19.255       64
   19.270       56
   19.285       67
   19.300       65
   19.315       63
   19.330       65
   19.345       58
   19.360       54
   19.375       66
   19.390       74
   19.405       87
   19.420       82
   19.435       67
   19.450       73
   19.465       64
   19.480       66
   19.495       71
   19.510       84
   19.525       89
   19.540      102
   19.555       91
   19.570      114
   19.585      119
   19.600      149
   19.615      135
   19.630      135
   19.645      120
   19.660      101
   19.675       99
   19.690       85
   19.705       80
   19.720       75
   19.735       84
   19.750      100
   19.765       93
   19.780      106
   19.795      155
   19.810      177
   19.825      221
   19.840      261
   19.855      324
   19.870      366
   19.885      373
   19.900      342
   19.915      274
   19.930      206
   19.945      175
   19.960      181
   19.975      191
   19.990      227
   20.005      254
   20.020      239
   20.035      217
   20.050      188
   20.065      157
   20.080      133
   20.095      108
   20.110      102
   20.125       90
   20.140       74
   20.155       81
   20.170       85
   20.185       88
   20.200      107
   20.215       94
   20.230      106
   20.245       96
   20.260       71
   20.275       60
   20.290       66
   20.305       70
   20.320       66
   20.335       64
   20.350       50
   20.365       48
   20.380       55
   20.395       55
   20.410       59
   20.425       54
   20.440       63
   20.455       66
   20.470       68
   20.485       75
   20.500       77
   20.515       78
   20.530       68
   20.545       67
   20.560       89
   20.575       88
   20.590       78
   20.605       68
   20.620       67
   20.635       69
   20.650       73
   20.665       73
   20.680       90
   20.695       88
   20.710      100
   20.725      119
   20.740      128
   20.755      124
   20.770      162
   20.785      171
   20.800      159
   20.815      148
   20.830      162
   20.845      188
   20.860      177
   20.875      151
   20.890      111
   20.905       89
   20.920       81
   20.935       75
   20.950       75
   20.965       86
   20.980       85
   20.995       87
   21.010       77
   21.025       68
   21.040       65
   21.055       75
   21.070       69
   21.085       74
   21.100       71
   21.115       83
   21.130       78
   21.145       82
   21.160       69
   21.175       68
   21.190       79
   21.205       86
   21.220      100
   21.235       99
   21.250       83
   21.265       67
   21.280       58
   21.295       47
   21.310       56
   21.325       73
   21.340       55
   21.355       58
   21.370       67
   21.385       61
   21.400       71
   21.415       63
   21.430       73
   21.445       65
   21.460       82
   21.475       94
   21.490       87
   21.505      102
   21.520      101
   21.535      149
   21.550      176
   21.565      187
   21.580      192
   21.595      194
   21.610      170
   21.625      147
   21.640      156
   21.655      131
   21.670      138
   21.685      163
   21.700      205
   21.715      265
   21.730      316
   21.745      409
   21.760      509
   21.775      510
   21.790      485
   21.805      324
   21.820      241
   21.835      172
   21.850      140
   21.865      133
   21.880      122
   21.895      112
   21.910       97
   21.925       90
   21.940       92
   21.955       81
   21.970       83
   21.985       69
   22.000       52
   22.015       74
   22.030       75
   22.045       76
   22.060       75
   22.075       82
   22.090       67
   22.105       75
   22.120       68
   22.135       73
   22.150       66
   22.165       62
   22.180       69
   22.195       58
   22.210       66
   22.225       58
   22.240       75
   22.255       84
   22.270       90
   22.285       89
   22.300       94
   22.315       93
   22.330      100
   22.345      104
   22.360      109
   22.375      109
   22.390      101
   22.405      101
   22.420       96
   22.435       99
   22.450       80
   22.465       78
   22.480       86
   22.495       82
   22.510      104
   22.525      107
   22.540      135
   22.555      140
   22.570      142
   22.585      154
   22.600      159
   22.615      161
   22.630      130
   22.645      110
   22.660      102
   22.675      107
   22.690      107
   22.705      113
   22.720      138
   22.735      143
   22.750      166
   22.765      201
   22.780      209
   22.795      220
   22.810      206
   22.825      209
   22.840      208
   22.855      164
   22.870      157
   22.885      137
   22.900      126
   22.915      112
   22.930       90
   22.945       80
   22.960       72
   22.975       84
   22.990       94
   23.005       93
   23.020      121
   23.035      128
   23.050      116
   23.065      113
   23.080      102
   23.095       91
   23.110      106
   23.125      110
   23.140      125
   23.155      129
   23.170      135
   23.185      144
   23.200      108
   23.215       85
   23.230       77
   23.245       59
   23.260       70
   23.275       69
   23.290       65
   23.305       75
   23.320       76
   23.335       77
   23.350       68
   23.365       85
   23.380       78
   23.395       85
   23.410       75
   23.425       64
   23.440       63
   23.455       59
   23.470       59
   23.485       50
   23.500       64
   23.515       67
   23.530       71
   23.545       65
   23.560       65
   23.575       57
   23.590       59
   23.605       57
   23.620       48
   23.635       55
   23.650       63
   23.665       59
   23.680       60
   23.695       56
   23.710       68
   23.725       65
   23.740       61
   23.755       75
   23.770       67
   23.785       64
   23.800       67
   23.815       72
   23.830       63
   23.845       65
   23.860       69
   23.875       79
   23.890       79
   23.905       90
   23.920       92
   23.935       92
   23.950      115
   23.965      119
   23.980      103
   23.995      100
   24.010       78
   24.025       74
   24.040       72
   24.055       78
   24.070       55
   24.085       47
   24.100       63
   24.115       74
   24.130       85
   24.145       81
   24.160       95
   24.175       92
   24.190       95
   24.205      118
   24.220      112
   24.235      101
   24.250       98
   24.265       84
   24.280       66
   24.295       67
   24.310       80
   24.325       75
   24.340       57
   24.355       71
   24.370       73
   24.385       58
   24.400       73
   24.415       76
   24.430       72
   24.445       78
   24.460       89
   24.475       78
   24.490       82
   24.505       79
   24.520       75
   24.535       80
   24.550      103
   24.565       77
   24.580      100
   24.595      112
   24.610      104
   24.625       91
   24.640       94
   24.655       80
   24.670       82
   24.685       84
   24.700       93
   24.715       75
   24.730       77
   24.745       82
   24.760       71
   24.775       64
   24.790       63
   24.805       63
   24.820       57
   24.835       63
   24.850       70
   24.865       77
   24.880       92
   24.895      100
   24.910      110
   24.925      117
   24.940      119
   24.955      105
   24.970       96
   24.985       76
   25.000       74
   25.015       94
   25.030       87
   25.045       74
   25.060       71
   25.075       78
   25.090       91
   25.105       95
   25.120      107
   25.135      112
   25.150       93
   25.165       89
   25.180       97
   25.195       78
   25.210       72
   25.225       77
   25.240       58
   25.255       63
   25.270       75
   25.285       76
   25.300       73
   25.315       75
   25.330       85
   25.345       87
   25.360       99
   25.375      100
   25.390      103
   25.405       89
   25.420      101
   25.435      102
   25.450       78
   25.465       86
   25.480       76
   25.495       85
   25.510       89
   25.525       81
   25.540       92
   25.555       97
   25.570      109
   25.585      137
   25.600      156
   25.615      173
   25.630      167
   25.645      168
   25.660      163
   25.675      145
   25.690      135
   25.705      104
   25.720       84
   25.735       63
   25.750       79
   25.765       80
   25.780      102
   25.795       99
   25.810      108
   25.825      122
   25.840      133
   25.855      134
   25.870      113
   25.885      100
   25.900       93
   25.915       78
   25.930       81
   25.945       75
   25.960       82
   25.975       83
   25.990       81
   26.005       79
   26.020       77
   26.035       96
   26.050       85
   26.065       94
   26.080      100
   26.095      116
   26.110      126
   26.125      125
   26.140      108
   26.155       89
   26.170       79
   26.185       78
   26.200       63
   26.215       65
   26.230       60
   26.245       63
   26.260       72
   26.275       69
   26.290       70
   26.305       70
   26.320       74
   26.335       76
   26.350       70
   26.365       73
   26.380       71
   26.395       68
   26.410       66
   26.425       57
   26.440       53
   26.455       47
   26.470       62
   26.485       64
   26.500       58
   26.515       64
   26.530       68
   26.545       77
   26.560       76
   26.575       79
   26.590       93
   26.605      100
   26.620       96
   26.635       90
   26.650       81
   26.665       75
   26.680       81
   26.695       67
   26.710       66
   26.725       71
   26.740       60
   26.755       80
   26.770       84
   26.785       91
   26.800       92
   26.815      114
   26.830      132
   26.845      139
   26.860      133
   26.875      133
   26.890      138
   26.905      132
   26.920      153
   26.935      162
   26.950      131
   26.965      106
   26.980      107
   26.995       88
   27.010       92
   27.025       86
   27.040       80
   27.055       71
   27.070       76
   27.085       68
   27.100       63
   27.115       77
   27.130       79
   27.145       95
   27.160       81
   27.175       82
   27.190       84
   27.205       73
   27.220       77
   27.235       77
   27.250       86
   27.265       78
   27.280       78
   27.295       68
   27.310       74
   27.325       78
   27.340       91
   27.355       74
   27.370       91
   27.385       84
   27.400      104
   27.415      110
   27.430      119
   27.445      120
   27.460      115
   27.475      141
   27.490      135
   27.505      130
   27.520      141
   27.535      135
   27.550      148
   27.565      159
   27.580      163
   27.595      135
   27.610      136
   27.625      125
   27.640      111
   27.655      112
   27.670       99
   27.685       92
   27.700       75
   27.715       82
   27.730       72
   27.745       74
   27.760       80
   27.775       86
   27.790       82
   27.805      114
   27.820      128
   27.835      128
   27.850      136
   27.865      117
   27.880      109
   27.895       92
   27.910       83
   27.925       74
   27.940       66
   27.955       75
   27.970       59
   27.985       70
   28.000       60
   28.015       79
   28.030       77
   28.045      100
   28.060       94
   28.075       89
   28.090      103
   28.105       87
   28.120       82
   28.135       75
   28.150       82
   28.165       86
   28.180       84
   28.195       89
   28.210       91
   28.225       90
   28.240       98
   28.255       86
   28.270       89
   28.285       84
   28.300       92
   28.315       82
   28.330       86
   28.345       84
   28.360       84
   28.375      102
   28.390       91
   28.405       83
   28.420       71
   28.435       77
   28.450       68
   28.465       71
   28.480       80
   28.495       77
   28.510       71
   28.525       74
   28.540       80
   28.555       67
   28.570       75
   28.585       88
   28.600       79
   28.615       88
   28.630       81
   28.645       92
   28.660       98
   28.675       86
   28.690       69
   28.705       56
   28.720       68
   28.735       68
   28.750       69
   28.765       84
   28.780       79
   28.795       74
   28.810       95
   28.825       93
   28.840      100
   28.855      107
   28.870      107
   28.885       98
   28.900       93
   28.915       88
   28.930       98
   28.945       93
   28.960       95
   28.975       97
   28.990       93
   29.005       74
   29.020       86
   29.035       86
   29.050       78
   29.065       86
   29.080       90
   29.095       82
   29.110       81
   29.125       84
   29.140       79
   29.155       74
   29.170       83
   29.185       78
   29.200       84
   29.215       75
   29.230       76
   29.245       69
   29.260       68
   29.275       77
   29.290       71
   29.305       72
   29.320       59
   29.335       59
   29.350       58
   29.365       60
   29.380       69
   29.395       70
   29.410       78
   29.425       84
   29.440       85
   29.455       84
   29.470       93
   29.485       90
   29.500       82
   29.515      102
   29.530       99
   29.545       90
   29.560       92
   29.575      123
   29.590      130
   29.605      141
   29.620      129
   29.635      117
   29.650       95
   29.665      107
   29.680       97
   29.695       95
   29.710       83
   29.725       80
   29.740       83
   29.755       79
   29.770       75
   29.785       75
   29.800       72
   29.815       89
   29.830       75
   29.845       70
   29.860       67
   29.875       84
   29.890       75
   29.905       64
   29.920       55
   29.935       67
   29.950       61
   29.965       65
   29.980       80
   29.995       63
   30.010       81
   30.025       71
   30.040       65
   30.055       59
   30.070       67
   30.085       75
   30.100       61
   30.115       73
   30.130       76
   30.145       69
   30.160       74
   30.175       64
   30.190       64
   30.205       78
   30.220       81
   30.235       78
   30.250       67
   30.265       72
   30.280       67
   30.295       68
   30.310       75
   30.325       75
   30.340       78
   30.355       71
   30.370       64
   30.385       73
   30.400       76
   30.415       75
   30.430       92
   30.445       83
   30.460       76
   30.475       93
   30.490       99
   30.505       89
   30.520       84
   30.535       86
   30.550      105
   30.565       88
   30.580       94
   30.595       78
   30.610       92
   30.625       84
   30.640       80
   30.655       59
   30.670       68
   30.685       58
   30.700       68
   30.715       70
   30.730       65
   30.745       79
   30.760       65
   30.775       67
   30.790       64
   30.805       61
   30.820       73
   30.835       89
   30.850      109
   30.865       87
   30.880       89
   30.895       89
   30.910      114
   30.925      107
   30.940       95
   30.955       91
   30.970      112
   30.985      101
   31.000       95
   31.015       72
   31.030       76
   31.045       91
   31.060       83
   31.075       62
   31.090       63
   31.105       78
   31.120       88
   31.135       90
   31.150       84
   31.165       82
   31.180       67
   31.195       63
   31.210       70
   31.225       71
   31.240       72
   31.255       75
   31.270       73
   31.285       66
   31.300       80
   31.315       93
   31.330       85
   31.345       94
   31.360       82
   31.375       84
   31.390       75
   31.405       79
   31.420       79
   31.435       83
   31.450       85
   31.465       81
   31.480       85
   31.495       85
   31.510       96
   31.525      103
   31.540       93
   31.555       90
   31.570       75
   31.585       84
   31.600       86
   31.615       92
   31.630       86
   31.645       86
   31.660       94
   31.675      111
   31.690      110
   31.705      104
   31.720       85
   31.735       98
   31.750       88
   31.765       92
   31.780      111
   31.795      104
   31.810       96
   31.825      115
   31.840      101
   31.855       91
   31.870       95
   31.885       84
   31.900       83
   31.915       88
   31.930       87
   31.945       81
   31.960       85
   31.975       83
   31.990       80
   32.005       89
   32.020       76
   32.035       79
   32.050       72
   32.065       80
   32.080       95
   32.095       81
   32.110       75
   32.125       76
   32.140       77
   32.155       71
   32.170       70
   32.185       59
   32.200       60
   32.215       68
   32.230       56
   32.245       60
   32.260       74
   32.275       67
   32.290       67
   32.305       64
   32.320       66
   32.335       82
   32.350       83
   32.365       77
   32.380       70
   32.395       73
   32.410       62
   32.425       66
   32.440       74
   32.455       66
   32.470       64
   32.485       56
   32.500       65
   32.515       75
   32.530       70
   32.545       67
   32.560       65
   32.575       50
   32.590       69
   32.605       84
   32.620       70
   32.635       65
   32.650       65
   32.665       76
   32.680       80
   32.695       56
   32.710       60
   32.725       72
   32.740       60
   32.755       65
   32.770       69
   32.785       81
   32.800       61
   32.815       62
   32.830       74
   32.845       84
   32.860       83
   32.875       89
   32.890      101
   32.905      111
   32.920      108
   32.935       92
   32.950       93
   32.965       96
   32.980       91
   32.995       88
   33.010       82
   33.025       72
   33.040       81
   33.055       68
   33.070       61
   33.085       72
   33.100       71
   33.115       59
   33.130       65
   33.145       75
   33.160       91
   33.175       78
   33.190       71
   33.205       61
   33.220       69
   33.235       67
   33.250       57
   33.265       69
   33.280       61
   33.295       63
   33.310       74
   33.325       84
   33.340       80
   33.355       79
   33.370       97
   33.385       97
   33.400      108
   33.415       95
   33.430      110
   33.445      106
   33.460       97
   33.475       90
   33.490       82
   33.505       87
   33.520       92
   33.535       78
   33.550       89
   33.565       78
   33.580       73
   33.595       83
   33.610       84
   33.625       73
   33.640       71
   33.655       88
   33.670       91
   33.685       74
   33.700       84
   33.715      111
   33.730      109
   33.745      125
   33.760      112
   33.775      109
   33.790       95
   33.805       85
   33.820       93
   33.835       86
   33.850       74
   33.865       78
   33.880      101
   33.895       92
   33.910       88
   33.925       98
   33.940       90
   33.955       86
   33.970       88
   33.985       85
   34.000       93
   34.015       82
   34.030       92
   34.045       78
   34.060       86
   34.075       90
   34.090       79
   34.105       80
   34.120       69
   34.135       50
   34.150       77
   34.165       72
   34.180       70
   34.195       66
   34.210       72
   34.225       80
   34.240       61
   34.255       73
   34.270       80
   34.285       62
   34.300       67
   34.315       77
   34.330       69
   34.345       63
   34.360       87
   34.375       74
   34.390       82
   34.405       83
   34.420       94
   34.435       73
   34.450       64
   34.465       81
   34.480       88
   34.495       77
   34.510       73
   34.525       76
   34.540       68
   34.555       66
   34.570       80
   34.585       67
   34.600       63
   34.615       64
   34.630       67
   34.645       68
   34.660       78
   34.675       73
   34.690       86
   34.705       69
   34.720       71
   34.735       68
   34.750       66
   34.765       57
   34.780       79
   34.795       70
   34.810       60
   34.825       70
   34.840       75
   34.855       62
   34.870       65
   34.885       69
   34.900       67
   34.915       61
   34.930       69
   34.945       64
   34.960       82
   34.975       65
   34.990       67
   35.005       76
   35.020       75
   35.035       71
   35.050       70
   35.065       78
   35.080       79
   35.095       76
   35.110       72
   35.125       73
   35.140       79
   35.155       79
   35.170       78
   35.185       89
   35.200       84
   35.215       88
   35.230       88
   35.245       83
   35.260       83
   35.275       88
   35.290       84
   35.305       89
   35.320       96
   35.335       95
   35.350      106
   35.365      103
   35.380      119
   35.395      133
   35.410      109
   35.425       95
   35.440       87
   35.455       87
   35.470      103
   35.485       96
   35.500      114
   35.515      108
   35.530      115
   35.545      104
   35.560      103
   35.575       95
   35.590       98
   35.605       87
   35.620       81
   35.635       83
   35.650       76
   35.665       63
   35.680       66
   35.695       62
   35.710       72
   35.725       58
   35.740       74
   35.755       63
   35.770       56
   35.785       59
   35.800       65
   35.815       62
   35.830       58
   35.845       62
   35.860       66
   35.875       71
   35.890       65
   35.905       60
   35.920       70
   35.935       60
   35.950       69
   35.965       61
   35.980       72
   35.995       71
   36.010       65
   36.025       48
   36.040       71
   36.055       67
   36.070       56
   36.085       62
   36.100       58
   36.115       67
   36.130       65
   36.145       64
   36.160       66
   36.175       81
   36.190       91
   36.205       91
   36.220       76
   36.235       68
   36.250       75
   36.265       76
   36.280       75
   36.295       65
   36.310       60
   36.325       65
   36.340       70
   36.355       66
   36.370       63
   36.385       64
   36.400       72
   36.415       70
   36.430       66
   36.445       69
   36.460       68
   36.475       58
   36.490       75
   36.505       78
   36.520       70
   36.535       68
   36.550       54
   36.565       64
   36.580       68
   36.595       68
   36.610       63
   36.625       67
   36.640       73
   36.655       75
   36.670       75
   36.685      107
   36.700       91
   36.715       75
   36.730       74
   36.745       82
   36.760       80
   36.775       62
   36.790       70
   36.805       70
   36.820       76
   36.835       72
   36.850       66
   36.865       71
   36.880       76
   36.895       78
   36.910       65
   36.925       75
   36.940       67
   36.955       72
   36.970       76
   36.985       70
   37.000       65
   37.015       69
   37.030       61
   37.045       63
   37.060       66
   37.075       76
   37.090       75
   37.105       76
   37.120       70
   37.135       78
   37.150       74
   37.165       78
   37.180       84
   37.195       84
   37.210       87
   37.225       78
   37.240       91
   37.255       83
   37.270       71
   37.285       60
   37.300       66
   37.315       73
   37.330       60
   37.345       57
   37.360       67
   37.375       73
   37.390       55
   37.405       53
   37.420       55
   37.435       71
   37.450       62
   37.465       69
   37.480       67
   37.495       56
   37.510       60
   37.525       48
   37.540       53
   37.555       61
   37.570       69
   37.585       63
   37.600       55
   37.615       61
   37.630       72
   37.645       66
   37.660       60
   37.675       60
   37.690       60
   37.705       56
   37.720       58
   37.735       59
   37.750       68
   37.765       60
   37.780       65
   37.795       65
   37.810       71
   37.825       76
   37.840       68
   37.855       68
   37.870       61
   37.885       58
   37.900       60
   37.915       75
   37.930       78
   37.945       69
   37.960       69
   37.975       75
   37.990       58
   38.005       56
   38.020       58
   38.035       64
   38.050       63
   38.065       62
   38.080       68
   38.095       72
   38.110       80
   38.125       72
   38.140       74
   38.155       69
   38.170       69
   38.185       68
   38.200       57
   38.215       64
   38.230       66
   38.245       69
   38.260       77
   38.275       91
   38.290       85
   38.305       82
   38.320       90
   38.335       82
   38.350       80
   38.365       86
   38.380       79
   38.395       71
   38.410       66
   38.425       74
   38.440       74
   38.455       64
   38.470       62
   38.485       79
   38.500       71
   38.515       72
   38.530       66
   38.545       78
   38.560       82
   38.575       82
   38.590       78
   38.605       88
   38.620       80
   38.635       78
   38.650       72
   38.665       68
   38.680       63
   38.695       68
   38.710       78
   38.725       72
   38.740       71
   38.755       61
   38.770       62
   38.785       78
   38.800       60
   38.815       70
   38.830       61
   38.845       81
   38.860       80
   38.875       73
   38.890       75
   38.905       73
   38.920       61
   38.935       62
   38.950       74
   38.965       73
   38.980       70
   38.995       59
   39.010       65
   39.025       62
   39.040       53
   39.055       71
   39.070       62
   39.085       63
   39.100       67
   39.115       62
   39.130       60
   39.145       62
   39.160       60
   39.175       59
   39.190       59
   39.205       60
   39.220       59
   39.235       59
   39.250       75
   39.265       63
   39.280       61
   39.295       60
   39.310       59
   39.325       53
   39.340       59
   39.355       69
   39.370       65
   39.385       63
   39.400       54
   39.415       65
   39.430       56
   39.445       54
   39.460       59
   39.475       71
   39.490       64
   39.505       51
   39.520       56
   39.535       58
   39.550       61
   39.565       64
   39.580       63
   39.595       52
   39.610       63
   39.625       68
   39.640       60
   39.655       55
   39.670       71
   39.685       54
   39.700       63
   39.715       66
   39.730       81
   39.745       72
   39.760       76
   39.775       63
   39.790       58
   39.805       69
   39.820       65
   39.835       66
   39.850       49
   39.865       64
   39.880       60
   39.895       59
   39.910       52
   39.925       58
   39.940       51
   39.955       51
   39.970       56
   39.985       58
   40.000       67
   40.015       61
   40.030       55
   40.045       55
   40.060       59
   40.075       68
   40.090       64
   40.105       60
   40.120       68
   40.135       71
   40.150       52
   40.165       56
   40.180       47
   40.195       49
   40.210       65
   40.225       53
   40.240       69
   40.255       70
   40.270       67
   40.285       53
   40.300       60
   40.315       68
   40.330       60
   40.345       69
   40.360       53
   40.375       72
   40.390       69
   40.405       63
   40.420       57
   40.435       66
   40.450       68
   40.465       64
   40.480       60
   40.495       42
   40.510       52
   40.525       58
   40.540       68
   40.555       62
   40.570       60
   40.585       67
   40.600       59
   40.615       60
   40.630       73
   40.645       65
   40.660       58
   40.675       68
   40.690       62
   40.705       69
   40.720       66
   40.735       68
   40.750       61
   40.765       63
   40.780       64
   40.795       58
   40.810       66
   40.825       68
   40.840       67
   40.855       66
   40.870       55
   40.885       57
   40.900       64
   40.915       61
   40.930       64
   40.945       61
   40.960       61
   40.975       65
   40.990       54
   41.005       50
   41.020       61
   41.035       59
   41.050       53
   41.065       58
   41.080       60
   41.095       52
   41.110       58
   41.125       66
   41.140       60
   41.155       72
   41.170       58
   41.185       55
   41.200       69
   41.215       68
   41.230       56
   41.245       52
   41.260       59
   41.275       58
   41.290       57
   41.305       55
   41.320       63
   41.335       59
   41.350       65
   41.365       63
   41.380       61
   41.395       70
   41.410       76
   41.425       68
   41.440       59
   41.455       69
   41.470       64
   41.485       65
   41.500       59
   41.515       54
   41.530       48
   41.545       52
   41.560       61
   41.575       56
   41.590       55
   41.605       60
   41.620       66
   41.635       56
   41.650       53
   41.665       64
   41.680       62
   41.695       60
   41.710       74
   41.725       76
   41.740       61
   41.755       61
   41.770       54
   41.785       45
   41.800       52
   41.815       53
   41.830       55
   41.845       58
   41.860       67
   41.875       60
   41.890       64
   41.905       63
   41.920       61
   41.935       61
   41.950       59
   41.965       57
   41.980       55
   41.995       63
   42.010       65
   42.025       45
   42.040       48
   42.055       61
   42.070       60
   42.085       47
   42.100       58
   42.115       64
   42.130       61
   42.145       61
   42.160       52
   42.175       57
   42.190       67
   42.205       62
   42.220       62
   42.235       67
   42.250       73
   42.265       64
   42.280       67
   42.295       59
   42.310       65
   42.325       58
   42.340       58
   42.355       56
   42.370       60
   42.385       54
   42.400       60
   42.415       64
   42.430       52
   42.445       58
   42.460       67
   42.475       56
   42.490       46
   42.505       56
   42.520       56
   42.535       50
   42.550       53
   42.565       62
   42.580       64
   42.595       56
   42.610       66
   42.625       59
   42.640       53
   42.655       52
   42.670       52
   42.685       52
   42.700       67
   42.715       54
   42.730       57
   42.745       62
   42.760       55
   42.775       60
   42.790       52
   42.805       59
   42.820       53
   42.835       66
   42.850       56
   42.865       60
   42.880       60
   42.895       52
   42.910       60
   42.925       68
   42.940       59
   42.955       61
   42.970       58
   42.985       65
   43.000       59
   43.015       64
   43.030       69
   43.045       58
   43.060       55
   43.075       55
   43.090       57
   43.105       62
   43.120       51
   43.135       49
   43.150       48
   43.165       60
   43.180       53
   43.195       56
   43.210       55
   43.225       50
   43.240       74
   43.255       59
   43.270       61
   43.285       73
   43.300       58
   43.315       49
   43.330       50
   43.345       57
   43.360       57
   43.375       68
   43.390       55
   43.405       52
   43.420       62
   43.435       69
   43.450       58
   43.465       56
   43.480       64
   43.495       54
   43.510       52
   43.525       60
   43.540       67
   43.555       65
   43.570       50
   43.585       48
   43.600       50
   43.615       66
   43.630       52
   43.645       53
   43.660       50
   43.675       50
   43.690       54
   43.705       52
   43.720       59
   43.735       53
   43.750       60
   43.765       56
   43.780       58
   43.795       54
   43.810       64
   43.825       55
   43.840       52
   43.855       59
   43.870       58
   43.885       59
   43.900       59
   43.915       58
   43.930       51
   43.945       56
   43.960       56
   43.975       52
   43.990       55
   44.005       56
   44.020       56
   44.035       69
   44.050       61
   44.065       68
   44.080       72
   44.095       68
   44.110       48
   44.125       60
   44.140       64
   44.155       58
   44.170       67
   44.185       60
   44.200       53
   44.215       61
   44.230       60
   44.245       58
   44.260       61
   44.275       63
   44.290       72
   44.305       60
   44.320       60
   44.335       62
   44.350       63
   44.365       73
   44.380       76
   44.395       64
   44.410       62
   44.425       59
   44.440       55
   44.455       63
   44.470       62
   44.485       60
   44.500       43
   44.515       52
   44.530       50
   44.545       52
   44.560       57
   44.575       59
   44.590       69
   44.605       64
   44.620       65
   44.635       65
   44.650       74
   44.665       58
   44.680       69
   44.695       63
   44.710       61
   44.725       62
   44.740       60
   44.755       67
   44.770       56
   44.785       64
   44.800       62
   44.815       58
   44.830       60
   44.845       50
   44.860       64
   44.875       71
   44.890       64
   44.905       77
   44.920       70
   44.935       65
   44.950       67
   44.965       66
   44.980       63
   44.995       69
   45.010       69
   45.025       67
   45.040       79
   45.055       73
   45.070       70
   45.085       66
   45.100       63
   45.115       58
   45.130       62
   45.145       55
   45.160       59
   45.175       61
   45.190       52
   45.205       62
   45.220       64
   45.235       58
   45.250       56
   45.265       61
   45.280       48
   45.295       50
   45.310       58
   45.325       57
   45.340       60
   45.355       62
   45.370       65
   45.385       70
   45.400       62
   45.415       60
   45.430       64
   45.445       63
   45.460       65
   45.475       62
   45.490       60
   45.505       59
   45.520       55
   45.535       65
   45.550       60
   45.565       55
   45.580       57
   45.595       53
   45.610       59
   45.625       46
   45.640       56
   45.655       53
   45.670       66
   45.685       66
   45.700       66
   45.715       57
   45.730       55
   45.745       62
   45.760       69
   45.775       68
   45.790       56
   45.805       56
   45.820       60
   45.835       73
   45.850       75
   45.865       60
   45.880       53
   45.895       51
   45.910       50
   45.925       53
   45.940       50
   45.955       58
   45.970       58
   45.985       53
