    4.000       54
    4.015       40
    4.030       42
    4.045       50
    4.060       58
    4.075       46
    4.090       53
    4.105       56
    4.120       57
    4.135       46
    4.150       50
    4.165       54
    4.180       54
    4.195       48
    4.210       53
    4.225       47
    4.240       44
    4.255       60
    4.270       62
    4.285       54
    4.300       56
    4.315       55
    4.330       50
    4.345       48
    4.360       44
    4.375       37
    4.390       52
    4.405       47
    4.420       49
    4.435       38
    4.450       48
    4.465       51
    4.480       46
    4.495       50
    4.510       51
    4.525       52
    4.540       47
    4.555       49
    4.570       60
    4.585       64
    4.600       53
    4.615       57
    4.630       55
    4.645       44
    4.660       51
    4.675       50
    4.690       62
    4.705       62
    4.720       50
    4.735       45
    4.750       47
    4.765       46
    4.780       53
    4.795       50
    4.810       49
    4.825       43
    4.840       50
    4.855       44
    4.870       44
    4.885       46
    4.900       48
    4.915       53
    4.930       60
    4.945       57
    4.960       53
    4.975       48
    4.990       46
    5.005       42
    5.020       45
    5.035       55
    5.050       55
    5.065       58
    5.080       54
    5.095       45
    5.110       52
    5.125       51
    5.140       43
    5.155       47
    5.170       41
    5.185       46
    5.200       45
    5.215       46
    5.230       44
    5.245       60
    5.260       58
    5.275       58
    5.290       49
    5.305       45
    5.320       51
    5.335       46
    5.350       45
    5.365       53
    5.380       50
    5.395       40
    5.410       54
    5.425       49
    5.440       52
    5.455       55
    5.470       42
    5.485       46
    5.500       46
    5.515       54
    5.530       39
    5.545       47
    5.560       54
    5.575       44
    5.590       42
    5.605       41
    5.620       49
    5.635       48
    5.650       39
    5.665       47
    5.680       41
    5.695       56
    5.710       54
    5.725       46
    5.740       50
    5.755       57
    5.770       55
    5.785       50
    5.800       40
    5.815       48
    5.830       46
    5.845       48
    5.860       48
    5.875       43
    5.890       43
    5.905       53
    5.920       47
    5.935       47
    5.950       51
    5.965       41
    5.980       54
    5.995       51
    6.010       66
    6.025       45
    6.040       54
    6.055       51
    6.070       50
    6.085       45
    6.100       43
    6.115       45
    6.130       41
    6.145       45
    6.160       42
    6.175       43
    6.190       46
    6.205       51
    6.220       53
    6.235       53
    6.250       61
    6.265       56
    6.280       59
    6.295       63
    6.310       62
    6.325       57
    6.340       56
    6.355       64
    6.370       63
    6.385       82
    6.400       68
    6.415       67
    6.430       85
    6.445       99
    6.460       82
    6.475       83
    6.490       94
    6.505      101
    6.520      111
    6.535      129
    6.550      129
    6.565      137
    6.580      177
    6.595      212
    6.610      223
    6.625      209
    6.640      223
    6.655      228
    6.670      214
    6.685      154
    6.700      102
    6.715       63
    6.730       46
    6.745       46
    6.760       49
    6.775       57
    6.790       57
    6.805       44
    6.820       45
    6.835       54
    6.850       44
    6.865       50
    6.880       53
    6.895       45
    6.910       50
    6.925       51
    6.940       56
    6.955       65
    6.970       59
    6.985       42
    7.000       62
    7.015       62
    7.030       54
    7.045       51
    7.060       64
    7.075       71
    7.090       67
    7.105       65
    7.120       74
    7.135       85
    7.150       84
    7.165       90
    7.180      111
    7.195      110
    7.210       86
    7.225       71
    7.240       46
    7.255       42
    7.270       51
    7.285       39
    7.300       36
    7.315       42
    7.330       35
    7.345       44
    7.360       54
    7.375       51
    7.390       49
    7.405       49
    7.420       50
    7.435       40
    7.450       50
    7.465       45
    7.480       56
    7.495       55
    7.510       47
    7.525       40
    7.540       56
    7.555       48
    7.570       51
    7.585       44
    7.600       43
    7.615       42
    7.630       48
    7.645       47
    7.660       45
    7.675       45
    7.690       48
    7.705       54
    7.720       53
    7.735       42
    7.750       36
    7.765       42
    7.780       49
    7.795       43
    7.810       32
    7.825       36
    7.840       43
    7.855       50
    7.870       50
    7.885       42
    7.900       47
    7.915       47
    7.930       37
    7.945       48
    7.960       47
    7.975       49
    7.990       45
    8.005       45
    8.020       52
    8.035       45
    8.050       55
    8.065       49
    8.080       46
    8.095       47
    8.110       49
    8.125       42
    8.140       45
    8.155       48
    8.170       47
    8.185       44
    8.200       44
    8.215       58
    8.230       54
    8.245       45
    8.260       39
    8.275       39
    8.290       34
    8.305       42
    8.320       47
    8.335       50
    8.350       43
    8.365       47
    8.380       51
    8.395       59
    8.410       59
    8.425       51
    8.440       39
    8.455       43
    8.470       49
    8.485       61
    8.500       51
    8.515       50
    8.530       60
    8.545       52
    8.560       54
    8.575       39
    8.590       38
    8.605       48
    8.620       52
    8.635       37
    8.650       47
    8.665       44
    8.680       44
    8.695       46
    8.710       41
    8.725       46
    8.740       37
    8.755       41
    8.770       43
    8.785       47
    8.800       44
    8.815       44
    8.830       52
    8.845       50
    8.860       43
    8.875       52
    8.890       51
    8.905       49
    8.920       52
    8.935       62
    8.950       51
    8.965       46
    8.980       46
    8.995       51
    9.010       36
    9.025       43
    9.040       49
    9.055       43
    9.070       42
    9.085       56
    9.100       48
    9.115       45
    9.130       47
    9.145       56
    9.160       56
    9.175       42
    9.190       48
    9.205       42
    9.220       48
    9.235       44
    9.250       52
    9.265       43
    9.280       43
    9.295       41
    9.310       46
    9.325       41
    9.340       38
    9.355       45
    9.370       42
    9.385       52
    9.400       50
    9.415       45
    9.430       44
    9.445       41
    9.460       38
    9.475       48
    9.490       41
    9.505       40
    9.520       48
    9.535       48
    9.550       37
    9.565       54
    9.580       42
    9.595       46
    9.610       42
    9.625       42
    9.640       49
    9.655       45
    9.670       53
    9.685       48
    9.700       52
    9.715       50
    9.730       49
    9.745       45
    9.760       55
    9.775       67
    9.790       62
    9.805       71
    9.820       84
    9.835       58
    9.850       59
    9.865       42
    9.880       48
    9.895       47
    9.910       45
    9.925       51
    9.940       52
    9.955       56
    9.970       52
    9.985       52
   10.000       47
   10.015       47
   10.030       48
   10.045       41
   10.060       42
   10.075       40
   10.090       44
   10.105       42
   10.120       52
   10.135       43
   10.150       47
   10.165       52
   10.180       51
   10.195       51
   10.210       55
   10.225       66
   10.240       70
   10.255       58
   10.270       61
   10.285       75
   10.300       88
   10.315       76
   10.330       68
   10.345       76
   10.360       74
   10.375       87
   10.390       95
   10.405      110
   10.420      133
   10.435      111
   10.450      106
   10.465      131
   10.480      128
   10.495      103
   10.510       67
   10.525       51
   10.540       60
   10.555       48
   10.570       44
   10.585       46
   10.600       42
   10.615       58
   10.630       57
   10.645       54
   10.660       50
   10.675       57
   10.690       65
   10.705       57
   10.720       61
   10.735       69
   10.750       76
   10.765       94
   10.780       79
   10.795       92
   10.810       84
   10.825       89
   10.840      110
   10.855      124
   10.870      117
   10.885       99
   10.900       77
   10.915       64
   10.930       44
   10.945       53
   10.960       53
   10.975       59
   10.990       62
   11.005       65
   11.020       71
   11.035       76
   11.050       80
   11.065       80
   11.080       70
   11.095       66
   11.110       63
   11.125       63
   11.140       61
   11.155       68
   11.170       66
   11.185       79
   11.200       88
   11.215       93
   11.230      112
   11.245      106
   11.260       83
   11.275       68
   11.290       65
   11.305       54
   11.320       52
   11.335       50
   11.350       56
   11.365       60
   11.380       65
   11.395       69
   11.410       65
   11.425       67
   11.440       64
   11.455       59
   11.470       40
   11.485       39
   11.500       39
   11.515       42
   11.530       52
   11.545       51
   11.560       45
   11.575       52
   11.590       46
   11.605       52
   11.620       53
   11.635       53
   11.650       50
   11.665       54
   11.680       50
   11.695       55
   11.710       51
   11.725       60
   11.740       63
   11.755       59
   11.770       68
   11.785       67
   11.800       65
   11.815       69
   11.830       89
   11.845       71
   11.860       69
   11.875       84
   11.890       74
   11.905       69
   11.920       64
   11.935       47
   11.950       56
   11.965       52
   11.980       59
   11.995       48
   12.010       52
   12.025       55
   12.040       57
   12.055       60
   12.070       62
   12.085       62
   12.100       66
   12.115       49
   12.130       49
   12.145       45
   12.160       55
   12.175       35
   12.190       42
   12.205       44
   12.220       43
   12.235       34
   12.250       38
   12.265       34
   12.280       56
   12.295       47
   12.310       44
   12.325       44
   12.340       45
   12.355       44
   12.370       37
   12.385       40
   12.400       52
   12.415       54
   12.430       55
   12.445       58
   12.460       55
   12.475       48
   12.490       67
   12.505       79
   12.520       97
   12.535      117
   12.550      122
   12.565      120
   12.580      151
   12.595      163
   12.610      217
   12.625      266
   12.640      331
   12.655      423
   12.670      475
   12.685      459
   12.700      376
   12.715      288
   12.730      258
   12.745      285
   12.760      329
   12.775      308
   12.790      244
   12.805      170
   12.820      115
   12.835       83
   12.850       66
   12.865       62
   12.880       63
   12.895       64
   12.910       73
   12.925       64
   12.940       78
   12.955       88
   12.970      116
   12.985      110
   13.000      110
   13.015      132
   13.030      192
   13.045      220
   13.060      256
   13.075      260
   13.090      252
   13.105      203
   13.120      167
   13.135      164
   13.150      177
   13.165      196
   13.180      240
   13.195      285
   13.210      383
   13.225      491
   13.240      630
   13.255      615
   13.270      521
   13.285      476
   13.300      468
   13.315      559
   13.330      693
   13.345      888
   13.360     1091
   13.375     1148
   13.390      874
   13.405      543
   13.420      256
   13.435      139
   13.450      121
   13.465      118
   13.480      115
   13.495      105
   13.510      151
   13.525      146
   13.540      162
   13.555      180
   13.570      222
   13.585      279
   13.600      289
   13.615      279
   13.630      331
   13.645      306
   13.660      215
   13.675      162
   13.690      106
   13.705       80
   13.720       63
   13.735       61
   13.750       68
   13.765       59
   13.780       69
   13.795       78
   13.810       89
   13.825       87
   13.840       94
   13.855      100
   13.870      117
   13.885      104
   13.900       94
   13.915       89
   13.930       71
   13.945       49
   13.960       47
   13.975       46
   13.990       47
   14.005       47
   14.020       42
   14.035       48
   14.050       41
   14.065       37
   14.080       43
   14.095       48
   14.110       50
   14.125       52
   14.140       53
   14.155       50
   14.170       46
   14.185       50
   14.200       53
   14.215       76
   14.230       71
   14.245       85
   14.260       92
   14.275       92
   14.290       96
   14.305      128
   14.320      159
   14.335      171
   14.350      149
   14.365      126
   14.380      137
   14.395      140
   14.410      161
   14.425      178
   14.440      190
   14.455      181
   14.470      186
   14.485      184
   14.500      228
   14.515      305
   14.530      336
   14.545      299
   14.560      208
   14.575      134
   14.590       86
   14.605       63
   14.620       56
   14.635       48
   14.650       51
   14.665       48
   14.680       44
   14.695       48
   14.710       35
   14.725       47
   14.740       37
   14.755       56
   14.770       47
   14.785       41
   14.800       53
   14.815       58
   14.830       45
   14.845       49
   14.860       38
   14.875       57
   14.890       50
   14.905       73
   14.920       69
   14.935       79
   14.950       91
   14.965      115
   14.980      133
   14.995      171
   15.010      201
   15.025      252
   15.040      330
   15.055      349
   15.070      368
   15.085      398
   15.100      503
   15.115      628
   15.130      796
   15.145      745
   15.160      576
   15.175      391
   15.190      227
   15.205      149
   15.220      118
   15.235      116
   15.250      100
   15.265      109
   15.280      138
   15.295      149
   15.310      175
   15.325      204
   15.340      238
   15.355      234
   15.370      206
   15.385      175
   15.400      152
   15.415      144
   15.430      163
   15.445      163
   15.460      128
   15.475      100
   15.490       86
   15.505       88
   15.520       91
   15.535      119
   15.550      129
   15.565      147
   15.580      169
   15.595      223
   15.610      288
   15.625      326
   15.640      334
   15.655      308
   15.670      203
   15.685      130
   15.700      124
   15.715      123
   15.730      111
   15.745      116
   15.760      139
   15.775      174
   15.790      200
   15.805      265
   15.820      287
   15.835      274
   15.850      187
   15.865      148
   15.880       83
   15.895       54
   15.910       66
   15.925       53
   15.940       50
   15.955       60
   15.970       64
   15.985       61
   16.000       60
   16.015       64
   16.030       86
   16.045      109
   16.060      111
   16.075      130
   16.090      164
   16.105      202
   16.120      231
   16.135      301
   16.150      351
   16.165      381
   16.180      334
   16.195      251
   16.210      140
   16.225       93
   16.240       90
   16.255       99
   16.270      102
   16.285       92
   16.300      115
   16.315      133
   16.330      159
   16.345      177
   16.360      220
   16.375      221
   16.390      213
   16.405      218
   16.420      240
   16.435      308
   16.450      424
   16.465      450
   16.480      424
   16.495      352
   16.510      278
   16.525      214
   16.540      186
   16.555      232
   16.570      272
   16.585      313
   16.600      374
   16.615      382
   16.630      318
   16.645      247
   16.660      204
   16.675      183
   16.690      217
   16.705      253
   16.720      308
   16.735      366
   16.750      356
   16.765      349
   16.780      315
   16.795      287
   16.810      318
   16.825      321
   16.840      317
   16.855      316
   16.870      285
   16.885      217
   16.900      151
   16.915      116
   16.930       81
   16.945       89
   16.960       87
   16.975       84
   16.990       95
   17.005      111
   17.020      132
   17.035      158
   17.050      176
   17.065      209
   17.080      205
   17.095      198
   17.110      134
   17.125      112
   17.140      112
   17.155      107
   17.170      116
   17.185      161
   17.200      178
   17.215      211
   17.230      268
   17.245      302
   17.260      329
   17.275      329
   17.290      297
   17.305      217
   17.320      159
   17.335      134
   17.350      137
   17.365      134
   17.380      114
   17.395      113
   17.410      110
   17.425      117
   17.440      126
   17.455      140
   17.470      178
   17.485      201
   17.500      263
   17.515      254
   17.530      224
   17.545      178
   17.560      123
   17.575       91
   17.590       71
   17.605       57
   17.620       61
   17.635       69
   17.650       62
   17.665       80
   17.680      103
   17.695      122
   17.710      123
   17.725      108
   17.740       95
   17.755      116
   17.770      113
   17.785      136
   17.800      114
   17.815      119
   17.830       88
   17.845       89
   17.860       69
   17.875       59
   17.890       76
   17.905       74
   17.920       77
   17.935       50
   17.950       59
   17.965       53
   17.980       53
   17.995       59
   18.010       50
   18.025       57
   18.040       58
   18.055       60
   18.070       71
   18.085       63
   18.100       69
   18.115       67
   18.130       90
   18.145       90
   18.160       82
   18.175       58
   18.190       60
   18.205       68
   18.220       74
   18.235       81
   18.250       93
   18.265       98
   18.280      118
   18.295      137
   18.310      156
   18.325      176
   18.340      163
   18.355      151
   18.370      152
   18.385      116
   18.400       94
   18.415       74
   18.430       54
   18.445       53
   18.460       53
   18.475       46
   18.490       62
   18.505       63
   18.520       77
   18.535       72
   18.550       80
   18.565       97
   18.580      125
   18.595      153
   18.610      166
   18.625      152
   18.640      158
   18.655      140
   18.670      137
   18.685      165
   18.700      175
   18.715      200
   18.730      219
   18.745      174
   18.760      129
   18.775      120
   18.790       90
   18.805       69
   18.820       75
   18.835       58
   18.850       70
   18.865       79
   18.880       85
   18.895      101
   18.910      117
   18.925      129
   18.940      131
   18.955      141
   18.970      154
   18.985      125
   19.000      123
   19.015      133
   19.030      103
   19.045      103
   19.060       87
   19.075       78
   19.090       59
   19.105       61
   19.120       58
   19.135       58
   19.150       55
   19.165       50
   19.180       60
   19.195       53
   19.210       48
   19.225       51
   19.240       39
   19.255       50
   19.270       52
   19.285       49
   19.300       39
   19.315       50
   19.330       52
   19.345       47
   19.360       48
   19.375       52
   19.390       48
   19.405       51
   19.420       48
   19.435       52
   19.450       61
   19.465       53
   19.480       58
   19.495       56
   19.510       54
   19.525       58
   19.540       71
   19.555       70
   19.570       74
   19.585       88
   19.600      101
   19.615      124
   19.630      162
   19.645      155
   19.660      165
   19.675      175
   19.690      162
   19.705      142
   19.720      138
   19.735      120
   19.750      107
   19.765       82
   19.780       76
   19.795       88
   19.810      114
   19.825      123
   19.840      152
   19.855      171
   19.870      182
   19.885      231
   19.900      300
   19.915      403
   19.930      471
   19.945      427
   19.960      332
   19.975      252
   19.990      197
   20.005      155
   20.020      160
   20.035      186
   20.050      208
   20.065      229
   20.080      273
   20.095      255
   20.110      193
   20.125      153
   20.140      131
   20.155      104
   20.170       71
   20.185       64
   20.200       63
   20.215       73
   20.230       64
   20.245       78
   20.260      109
   20.275      105
   20.290      114
   20.305       85
   20.320       73
   20.335       60
   20.350       63
   20.365       51
   20.380       57
   20.395       47
   20.410       53
   20.425       45
   20.440       47
   20.455       49
   20.470       51
   20.485       44
   20.500       43
   20.515       52
   20.530       51
   20.545       54
   20.560       52
   20.575       63
   20.590       85
   20.605       85
   20.620       83
   20.635       70
   20.650       70
   20.665       61
   20.680       66
   20.695       49
   20.710       60
   20.725       61
   20.740       72
   20.755       82
   20.770      110
   20.785      111
   20.800      159
   20.815      192
   20.830      202
   20.845      183
   20.860      172
   20.875      163
   20.890      198
   20.905      188
   20.920      201
   20.935      194
   20.950      132
   20.965       92
   20.980       73
   20.995       80
   21.010       64
   21.025       67
   21.040       70
   21.055       70
   21.070       61
   21.085       68
   21.100       67
   21.115       55
   21.130       71
   21.145       72
   21.160       72
   21.175       76
   21.190       73
   21.205       63
   21.220       75
   21.235       76
   21.250       86
   21.265      105
   21.280      113
   21.295       92
   21.310       77
   21.325       78
   21.340       82
   21.355       56
   21.370       49
   21.385       68
   21.400       52
   21.415       51
   21.430       50
   21.445       44
   21.460       51
   21.475       50
   21.490       52
   21.505       60
   21.520       67
   21.535       70
   21.550       72
   21.565       98
   21.580      118
   21.595      147
   21.610      177
   21.625      210
   21.640      214
   21.655      208
   21.670      175
   21.685      151
   21.700      140
   21.715      119
   21.730      153
   21.745      164
   21.760      194
   21.775      244
   21.790      300
   21.805      405
   21.820      526
   21.835      592
   21.850      540
   21.865      433
   21.880      329
   21.895      202
   21.910      161
   21.925      139
   21.940      122
   21.955      133
   21.970      113
   21.985      104
   22.000       74
   22.015       71
   22.030       61
   22.045       59
   22.060       55
   22.075       54
   22.090       65
   22.105       61
   22.120       53
   22.135       59
   22.150       70
   22.165       75
   22.180       63
   22.195       69
   22.210       61
   22.225       66
   22.240       75
   22.255       71
   22.270       63
   22.285       90
   22.300       84
   22.315       86
   22.330       95
   22.345       78
   22.360       73
   22.375       78
   22.390       94
   22.405      104
   22.420      114
   22.435      122
   22.450      152
   22.465      123
   22.480      112
   22.495       84
   22.510       65
   22.525       61
   22.540       72
   22.555       93
   22.570       99
   22.585      113
   22.600      130
   22.615      153
   22.630      149
   22.645      198
   22.660      202
   22.675      171
   22.690      149
   22.705      122
   22.720       97
   22.735       87
   22.750      103
   22.765      115
   22.780      121
   22.795      134
   22.810      142
   22.825      168
   22.840      182
   22.855      219
   22.870      241
   22.885      248
   22.900      208
   22.915      184
   22.930      151
   22.945      144
   22.960      144
   22.975      109
   22.990       79
   23.005       79
   23.020       68
   23.035       76
   23.050       91
   23.065       89
   23.080      100
   23.095      113
   23.110       96
   23.125       96
   23.140       82
   23.155       84
   23.170       87
   23.185       84
   23.200      109
   23.215      126
   23.230      130
   23.245      123
   23.260      108
   23.275       96
   23.290       84
   23.305       64
   23.320       59
   23.335       63
   23.350       59
   23.365       59
   23.380       65
   23.395       78
   23.410       74
   23.425       85
   23.440       79
   23.455       68
   23.470       58
   23.485       59
   23.500       51
   23.515       52
   23.530       53
   23.545       43
   23.560       39
   23.575       52
   23.590       60
   23.605       51
   23.620       50
   23.635       55
   23.650       45
   23.665       67
   23.680       64
   23.695       53
   23.710       43
   23.725       48
   23.740       54
   23.755       34
   23.770       42
   23.785       45
   23.800       57
   23.815       49
   23.830       60
   23.845       75
   23.860       73
   23.875       71
   23.890       73
   23.905       73
   23.920       79
   23.935       77
   23.950       65
   23.965       70
   23.980       76
   23.995       82
   24.010       97
   24.025      102
   24.040      114
   24.055      125
   24.070      105
   24.085       87
   24.100       72
   24.115       74
   24.130       57
   24.145       48
   24.160       62
   24.175       57
   24.190       63
   24.205       65
   24.220       86
   24.235       86
   24.250      111
   24.265      116
   24.280      136
   24.295      142
   24.310      109
   24.325      107
   24.340       83
   24.355       66
   24.370       56
   24.385       51
   24.400       55
   24.415       57
   24.430       54
   24.445       60
   24.460       68
   24.475       67
   24.490       68
   24.505       68
   24.520       80
   24.535       83
   24.550       70
   24.565       78
   24.580       94
   24.595       94
   24.610      104
   24.625       94
   24.640       87
   24.655       87
   24.670       92
   24.685       93
   24.700       72
   24.715       69
   24.730       65
   24.745       69
   24.760       70
   24.775       83
   24.790       78
   24.805       67
   24.820       73
   24.835       75
   24.850       48
   24.865       48
   24.880       45
   24.895       56
   24.910       66
   24.925       72
   24.940       92
   24.955       92
   24.970       97
   24.985      106
   25.000      126
   25.015      120
   25.030      105
   25.045      106
   25.060       90
   25.075       69
   25.090       79
   25.105       87
   25.120       85
   25.135       87
   25.150       80
   25.165       83
   25.180       87
   25.195      101
   25.210       99
   25.225       83
   25.240       85
   25.255       82
   25.270       76
   25.285       62
   25.300       63
   25.315       64
   25.330       53
   25.345       71
   25.360       56
   25.375       69
   25.390       67
   25.405       76
   25.420      101
   25.435      115
   25.450      126
   25.465      126
   25.480      102
   25.495       85
   25.510       89
   25.525       82
   25.540       76
   25.555       77
   25.570       68
   25.585       75
   25.600       80
   25.615       89
   25.630      103
   25.645      130
   25.660      159
   25.675      202
   25.690      207
   25.705      232
   25.720      212
   25.735      213
   25.750      168
   25.765      128
   25.780      109
   25.795      102
   25.810       95
   25.825       87
   25.840       98
   25.855      108
   25.870      116
   25.885      134
   25.900      149
   25.915      153
   25.930      173
   25.945      136
   25.960      117
   25.975      103
   25.990       81
   26.005       72
   26.020       81
   26.035       83
   26.050       70
   26.065       66
   26.080       77
   26.095       74
   26.110       79
   26.125       85
   26.140       94
   26.155      111
   26.170      117
   26.185      126
   26.200      121
   26.215       92
   26.230       81
   26.245       72
   26.260       67
   26.275       63
   26.290       73
   26.305       72
   26.320       67
   26.335       65
   26.350       80
   26.365       73
   26.380       88
   26.395       82
   26.410       68
   26.425       64
   26.440       69
   26.455       56
   26.470       63
   26.485       48
   26.500       53
   26.515       59
   26.530       55
   26.545       48
   26.560       39
   26.575       33
   26.590       41
   26.605       57
   26.620       67
   26.635       79
   26.650       85
   26.665       94
   26.680       97
   26.695      125
   26.710       94
   26.725       83
   26.740       65
   26.755       69
   26.770       63
   26.785       71
   26.800       72
   26.815       68
   26.830       66
   26.845       77
   26.860       98
   26.875      101
   26.890      102
   26.905      141
   26.920      148
   26.935      200
   26.950      196
   26.965      178
   26.980      173
   26.995      177
   27.010      175
   27.025      149
   27.040      186
   27.055      150
   27.070      101
   27.085       83
   27.100       73
   27.115       71
   27.130       60
   27.145       81
   27.160       73
   27.175       71
   27.190       67
   27.205       59
   27.220       65
   27.235       63
   27.250       72
   27.265       70
   27.280       67
   27.295       77
   27.310       68
   27.325       60
   27.340       67
   27.355       56
   27.370       72
   27.385       84
   27.400       88
   27.415       95
   27.430       72
   27.445       79
   27.460       85
   27.475      106
   27.490      114
   27.505      119
   27.520      131
   27.535      166
   27.550      165
   27.565      151
   27.580      135
   27.595      152
   27.610      163
   27.625      165
   27.640      180
   27.655      182
   27.670      156
   27.685      152
   27.700      145
   27.715      145
   27.730      130
   27.745      115
   27.760      116
   27.775       97
   27.790      105
   27.805       92
   27.820       75
   27.835       94
   27.850      104
   27.865       97
   27.880      107
   27.895      125
   27.910      123
   27.925      115
   27.940      137
   27.955      128
   27.970       96
   27.985       93
   28.000       88
   28.015       68
   28.030       60
   28.045       54
   28.060       55
   28.075       70
   28.090       67
   28.105       62
   28.120       75
   28.135       70
   28.150       91
   28.165       78
   28.180       83
   28.195       79
   28.210       89
   28.225       89
   28.240       91
   28.255       84
   28.270       94
   28.285       97
   28.300      100
   28.315       99
   28.330      110
   28.345       86
   28.360       87
   28.375      115
   28.390       95
   28.405      105
   28.420       98
   28.435       99
   28.450       97
   28.465      108
   28.480       92
   28.495       80
   28.510       73
   28.525       56
   28.540       67
   28.555       53
   28.570       54
   28.585       46
   28.600       58
   28.615       56
   28.630       55
   28.645       57
   28.660       53
   28.675       53
   28.690       73
   28.705       88
   28.720       94
   28.735      102
   28.750       94
   28.765       94
   28.780       79
   28.795       68
   28.810       73
   28.825       64
   28.840       67
   28.855       76
   28.870       76
   28.885       72
   28.900       86
   28.915      106
   28.930       97
   28.945      112
   28.960      111
   28.975      100
   28.990       97
   29.005       87
   29.020       98
   29.035      102
   29.050      110
   29.065      115
   29.080      114
   29.095      130
   29.110      116
   29.125      110
   29.140      108
   29.155       96
   29.170       96
   29.185       88
   29.200       76
   29.215       77
   29.230       86
   29.245       87
   29.260       79
   29.275       81
   29.290       82
   29.305       84
   29.320       74
   29.335       68
   29.350       61
   29.365       70
   29.380       70
   29.395       82
   29.410       68
   29.425       54
   29.440       70
   29.455       62
   29.470       64
   29.485       72
   29.500       79
   29.515       86
   29.530       98
   29.545       97
   29.560       94
   29.575       98
   29.590       98
   29.605       88
   29.620       80
   29.635      105
   29.650       98
   29.665       89
   29.680      127
   29.695      146
   29.710      174
   29.725      142
   29.740      127
   29.755      111
   29.770       92
   29.785       86
   29.800      100
   29.815       95
   29.830       89
   29.845       74
   29.860       70
   29.875       76
   29.890       80
   29.905       67
   29.920       79
   29.935       66
   29.950       69
   29.965       55
   29.980       78
   29.995       55
   30.010       66
   30.025       61
   30.040       77
   30.055       57
   30.070       54
   30.085       57
   30.100       68
   30.115       60
   30.130       56
   30.145       67
   30.160       67
   30.175       67
   30.190       56
   30.205       65
   30.220       74
   30.235       66
   30.250       63
   30.265       66
   30.280       64
   30.295       63
   30.310       72
   30.325       59
   30.340       58
   30.355       53
   30.370       69
   30.385       70
   30.400       69
   30.415       71
   30.430       60
   30.445       54
   30.460       78
   30.475       71
   30.490       64
   30.505       65
   30.520       63
   30.535       82
   30.550       87
   30.565       74
   30.580       88
   30.595       78
   30.610       74
   30.625       84
   30.640       95
   30.655      118
   30.670      106
   30.685       89
   30.700       82
   30.715       69
   30.730       65
   30.745       65
   30.760       53
   30.775       50
   30.790       49
   30.805       48
   30.820       61
   30.835       62
   30.850       70
   30.865       65
   30.880       56
   30.895       56
   30.910       62
   30.925       68
   30.940       84
   30.955       82
   30.970      106
   30.985      120
   31.000      110
   31.015      113
   31.030      103
   31.045       93
   31.060       96
   31.075       85
   31.090       89
   31.105       72
   31.120       65
   31.135       74
   31.150       87
   31.165       80
   31.180       86
   31.195       80
   31.210       80
   31.225       78
   31.240       79
   31.255       75
   31.270       77
   31.285       66
   31.300       71
   31.315       60
   31.330       50
   31.345       64
   31.360       78
   31.375       81
   31.390       72
   31.405       84
   31.420       97
   31.435       91
   31.450       66
   31.465       74
   31.480       88
   31.495       84
   31.510       72
   31.525       86
   31.540       79
   31.555       96
   31.570       98
   31.585      110
   31.600      114
   31.615      102
   31.630       94
   31.645       90
   31.660       95
   31.675       89
   31.690       85
   31.705       79
   31.720       95
   31.735      106
   31.750      110
   31.765      104
   31.780       98
   31.795      101
   31.810      103
   31.825       84
   31.840       89
   31.855       96
   31.870      104
   31.885      111
   31.900      114
   31.915      113
   31.930      129
   31.945      112
   31.960       93
   31.975       94
   31.990       88
   32.005       79
   32.020       77
   32.035       80
   32.050       86
   32.065       81
   32.080      102
   32.095       96
   32.110       93
   32.125       92
   32.140       92
   32.155       86
   32.170       99
   32.185      103
   32.200       99
   32.215       85
   32.230       68
   32.245       75
   32.260       70
   32.275       55
   32.290       61
   32.305       68
   32.320       57
   32.335       58
   32.350       60
   32.365       65
   32.380       75
   32.395       77
   32.410       78
   32.425       75
   32.440       64
   32.455       68
   32.470       56
   32.485       60
   32.500       67
   32.515       62
   32.530       55
   32.545       53
   32.560       51
   32.575       56
   32.590       59
   32.605       53
   32.620       48
   32.635       56
   32.650       53
   32.665       60
   32.680       52
   32.695       59
   32.710       61
   32.725       48
   32.740       55
   32.755       65
   32.770       64
   32.785       62
   32.800       43
   32.815       58
   32.830       68
   32.845       58
   32.860       56
   32.875       52
   32.890       67
   32.905       68
   32.920       74
   32.935       78
   32.950       87
   32.965      112
   32.980      112
   32.995       99
   33.010      104
   33.025      108
   33.040      106
   33.055      104
   33.070       99
   33.085       89
   33.100       88
   33.115       64
   33.130       67
   33.145       72
   33.160       81
   33.175       79
   33.190       65
   33.205       77
   33.220       69
   33.235       70
   33.250       73
   33.265       71
   33.280       70
   33.295       61
   33.310       60
   33.325       68
   33.340       60
   33.355       65
   33.370       74
   33.385       73
   33.400       69
   33.415       86
   33.430       78
   33.445       94
   33.460       99
   33.475      121
   33.490      120
   33.505      109
   33.520       99
   33.535      124
   33.550      112
   33.565      110
   33.580      113
   33.595      108
   33.610      117
   33.625      101
   33.640       96
   33.655       86
   33.670       88
   33.685       81
   33.700       77
   33.715       71
   33.730       72
   33.745       68
   33.760       78
   33.775       84
   33.790       85
   33.805      106
   33.820      120
   33.835      144
   33.850      140
   33.865      114
   33.880      118
   33.895      113
   33.910       87
   33.925       89
   33.940       92
   33.955       58
   33.970       87
   33.985       88
   34.000       83
   34.015       85
   34.030       90
   34.045       97
   34.060      107
   34.075      101
   34.090       95
   34.105      101
   34.120       84
   34.135       87
   34.150       81
   34.165       74
   34.180       73
   34.195       72
   34.210       58
   34.225       69
   34.240       69
   34.255       71
   34.270       64
   34.285       67
   34.300       76
   34.315       66
   34.330       72
   34.345       67
   34.360       53
   34.375       53
   34.390       64
   34.405       63
   34.420       52
   34.435       64
   34.450       59
   34.465       70
   34.480       74
   34.495       85
   34.510       77
   34.525       88
   34.540       89
   34.555       83
   34.570       94
   34.585       83
   34.600       74
   34.615       75
   34.630       92
   34.645       69
   34.660       65
   34.675       61
   34.690       61
   34.705       70
   34.720       56
   34.735       72
   34.750       70
   34.765       66
   34.780       71
   34.795       66
   34.810       73
   34.825       71
   34.840       69
   34.855       73
   34.870       59
   34.885       58
   34.900       70
   34.915       68
   34.930       63
   34.945       65
   34.960       76
   34.975       81
   34.990       68
   35.005       74
   35.020       73
   35.035       74
   35.050       72
   35.065       66
   35.080       76
   35.095       82
   35.110       61
   35.125       75
   35.140       86
   35.155       82
   35.170       94
   35.185       88
   35.200       83
   35.215       83
   35.230       86
   35.245       88
   35.260       97
   35.275       91
   35.290       80
   35.305       99
   35.320      102
   35.335       87
   35.350       88
   35.365      105
   35.380      114
   35.395       99
   35.410      102
   35.425      115
   35.440      103
   35.455      114
   35.470      137
   35.485      143
   35.500      155
   35.515      138
   35.530      113
   35.545      115
   35.560      102
   35.575      102
   35.590      120
   35.605      123
   35.620      132
   35.635      142
   35.650      128
   35.665      114
   35.680      102
   35.695       88
   35.710       90
   35.725       94
   35.740       83
   35.755       85
   35.770       75
   35.785       74
   35.800       68
   35.815       56
   35.830       66
   35.845       45
   35.860       78
   35.875       68
   35.890       61
   35.905       54
   35.920       65
   35.935       69
   35.950       54
   35.965       52
   35.980       56
   35.995       47
   36.010       49
   36.025       55
   36.040       54
   36.055       59
   36.070       65
   36.085       61
   36.100       61
   36.115       62
   36.130       62
   36.145       68
   36.160       67
   36.175       54
   36.190       56
   36.205       59
   36.220       52
   36.235       64
   36.250       64
   36.265       74
   36.280       87
   36.295       80
   36.310       82
   36.325       61
   36.340       84
   36.355       73
   36.370       75
   36.385       63
   36.400       55
   36.415       61
   36.430       75
   36.445       65
   36.460       62
   36.475       62
   36.490       66
   36.505       46
   36.520       53
   36.535       46
   36.550       56
   36.565       70
   36.580       74
   36.595       78
   36.610       60
   36.625       49
   36.640       61
   36.655       68
   36.670       53
   36.685       62
   36.700       61
   36.715       67
   36.730       66
   36.745       86
   36.760       76
   36.775       74
   36.790       79
   36.805       87
   36.820       74
   36.835       78
   36.850       60
   36.865       65
   36.880       75
   36.895       74
   36.910       68
   36.925       61
   36.940       82
   36.955       59
   36.970       78
   36.985       66
   37.000       66
   37.015       57
   37.030       63
   37.045       67
   37.060       75
   37.075       71
   37.090       58
   37.105       70
   37.120       74
   37.135       75
   37.150       78
   37.165       63
   37.180       63
   37.195       65
   37.210       54
   37.225       61
   37.240       66
   37.255       79
   37.270       76
   37.285       69
   37.300       86
   37.315       85
   37.330       77
   37.345       66
   37.360       73
   37.375       89
   37.390       81
   37.405       77
   37.420       66
   37.435       74
   37.450       66
   37.465       77
   37.480       62
   37.495       49
   37.510       56
   37.525       43
   37.540       50
   37.555       48
   37.570       55
   37.585       67
   37.600       49
   37.615       57
   37.630       54
   37.645       61
   37.660       63
   37.675       71
   37.690       61
   37.705       68
   37.720       67
   37.735       69
   37.750       68
   37.765       61
   37.780       56
   37.795       66
   37.810       70
   37.825       68
   37.840       76
   37.855       63
   37.870       66
   37.885       68
   37.900       60
   37.915       61
   37.930       73
   37.945       69
   37.960       74
   37.975       72
   37.990       68
   38.005       71
   38.020       73
   38.035       88
   38.050       77
   38.065       73
   38.080       77
   38.095       74
   38.110       61
   38.125       52
   38.140       58
   38.155       60
   38.170       58
   38.185       73
   38.200       71
   38.215       78
   38.230       65
   38.245       61
   38.260       66
   38.275       68
   38.290       69
   38.305       62
   38.320       57
   38.335       68
   38.350       63
   38.365       66
   38.380       77
   38.395       76
   38.410       93
   38.425      104
   38.440      106
   38.455      101
   38.470      106
   38.485       98
   38.500       80
   38.515       63
   38.530       61
   38.545       64
   38.560       64
   38.575       65
   38.590       73
   38.605       74
   38.620       67
   38.635       74
   38.650       91
   38.665       89
   38.680      101
   38.695       81
   38.710       81
   38.725       73
   38.740       78
   38.755       70
   38.770       66
   38.785       73
   38.800       65
   38.815       67
   38.830       67
   38.845       74
   38.860       74
   38.875       64
   38.890       80
   38.905       77
   38.920       80
   38.935       72
   38.950       79
   38.965       77
   38.980       74
   38.995       77
   39.010       77
   39.025       64
   39.040       71
   39.055       74
   39.070       71
   39.085       58
   39.100       59
   39.115       60
   39.130       66
   39.145       58
   39.160       57
   39.175       62
   39.190       62
   39.205       68
   39.220       56
   39.235       51
   39.250       51
   39.265       58
   39.280       60
   39.295       57
   39.310       55
   39.325       65
   39.340       63
   39.355       54
   39.370       58
   39.385       62
   39.400       59
   39.415       56
   39.430       54
   39.445       52
   39.460       50
   39.475       53
   39.490       58
   39.505       62
   39.520       51
   39.535       63
   39.550       59
   39.565       41
   39.580       41
   39.595       52
   39.610       44
   39.625       53
   39.640       65
   39.655       67
   39.670       58
   39.685       55
   39.700       61
   39.715       62
   39.730       61
   39.745       63
   39.760       60
   39.775       66
   39.790       71
   39.805       70
   39.820       74
   39.835       75
   39.850       68
   39.865       82
   39.880       71
   39.895       81
   39.910       80
   39.925       75
   39.940       84
   39.955       82
   39.970       76
   39.985       85
   40.000       65
   40.015       67
   40.030       68
   40.045       58
   40.060       58
   40.075       51
   40.090       50
   40.105       63
   40.120       50
   40.135       61
   40.150       60
   40.165       65
   40.180       50
   40.195       50
   40.210       48
   40.225       53
   40.240       49
   40.255       58
   40.270       57
   40.285       45
   40.300       44
   40.315       50
   40.330       62
   40.345       56
   40.360       51
   40.375       63
   40.390       68
   40.405       63
   40.420       58
   40.435       68
   40.450       81
   40.465       64
   40.480       61
   40.495       72
   40.510       71
   40.525       76
   40.540       86
   40.555       86
   40.570       68
   40.585       73
   40.600       72
   40.615       79
   40.630       65
   40.645       63
   40.660       58
   40.675       63
   40.690       65
   40.705       60
   40.720       64
   40.735       73
   40.750       63
   40.765       74
   40.780       76
   40.795       86
   40.810       82
   40.825       86
   40.840       86
   40.855       85
   40.870       79
   40.885       75
   40.900       77
   40.915       81
   40.930       68
   40.945       67
   40.960       70
   40.975       71
   40.990       59
   41.005       61
   41.020       51
   41.035       52
   41.050       55
   41.065       53
   41.080       53
   41.095       57
   41.110       45
   41.125       51
   41.140       57
   41.155       58
   41.170       53
   41.185       49
   41.200       57
   41.215       53
   41.230       57
   41.245       52
   41.260       56
   41.275       52
   41.290       53
   41.305       55
   41.320       45
   41.335       61
   41.350       55
   41.365       55
   41.380       52
   41.395       46
   41.410       60
   41.425       50
   41.440       48
   41.455       47
   41.470       48
   41.485       52
   41.500       54
   41.515       45
   41.530       60
   41.545       54
   41.560       60
   41.575       50
   41.590       62
   41.605       56
   41.620       51
   41.635       55
   41.650       50
   41.665       75
   41.680       72
   41.695       55
   41.710       57
   41.725       51
   41.740       63
   41.755       62
   41.770       58
   41.785       54
   41.800       65
   41.815       64
   41.830       64
   41.845       60
   41.860       61
   41.875       63
   41.890       65
   41.905       75
   41.920       79
   41.935       59
   41.950       52
   41.965       59
   41.980       60
   41.995       66
   42.010       56
   42.025       58
   42.040       59
   42.055       71
   42.070       70
   42.085       86
   42.100       80
   42.115       72
   42.130       67
   42.145       60
   42.160       75
   42.175       63
   42.190       60
   42.205       55
   42.220       64
   42.235       68
   42.250       59
   42.265       64
   42.280       74
   42.295       60
   42.310       56
   42.325       60
   42.340       65
   42.355       76
   42.370       73
   42.385       67
   42.400       75
   42.415       77
   42.430       91
   42.445       73
   42.460       80
   42.475       61
   42.490       57
   42.505       65
   42.520       57
   42.535       55
   42.550       61
   42.565       66
   42.580       66
   42.595       61
   42.610       60
   42.625       59
   42.640       55
   42.655       51
   42.670       55
   42.685       49
   42.700       48
   42.715       55
   42.730       45
   42.745       53
   42.760       49
   42.775       52
   42.790       59
   42.805       63
   42.820       61
   42.835       65
   42.850       66
   42.865       54
   42.880       56
   42.895       58
   42.910       60
   42.925       56
   42.940       47
   42.955       54
   42.970       50
   42.985       45
   43.000       46
   43.015       48
   43.030       46
   43.045       42
   43.060       57
   43.075       57
   43.090       50
   43.105       54
   43.120       53
   43.135       70
   43.150       68
   43.165       64
   43.180       61
   43.195       52
   43.210       56
   43.225       69
   43.240       51
   43.255       55
   43.270       56
   43.285       62
   43.300       69
   43.315       71
   43.330       82
   43.345       55
   43.360       59
   43.375       41
   43.390       46
   43.405       55
   43.420       60
   43.435       52
   43.450       54
   43.465       54
   43.480       55
   43.495       47
   43.510       64
   43.525       48
   43.540       43
   43.555       46
   43.570       53
   43.585       53
   43.600       58
   43.615       45
   43.630       57
   43.645       50
   43.660       50
   43.675       59
   43.690       59
   43.705       51
   43.720       59
   43.735       47
   43.750       45
   43.765       37
   43.780       45
   43.795       59
   43.810       62
   43.825       54
   43.840       66
   43.855       56
   43.870       45
   43.885       52
   43.900       57
   43.915       49
   43.930       54
   43.945       52
   43.960       62
   43.975       64
   43.990       60
   44.005       63
   44.020       49
   44.035       54
   44.050       58
   44.065       50
   44.080       48
   44.095       49
   44.110       50
   44.125       62
   44.140       56
   44.155       54
   44.170       53
   44.185       57
   44.200       58
   44.215       63
   44.230       66
   44.245       74
   44.260       77
   44.275       70
   44.290       67
   44.305       65
   44.320       67
   44.335       58
   44.350       61
   44.365       57
   44.380       62
   44.395       60
   44.410       62
   44.425       60
   44.440       44
   44.455       57
   44.470       55
   44.485       68
   44.500       66
   44.515       70
   44.530       68
   44.545       66
   44.560       54
   44.575       70
   44.590       62
   44.605       63
   44.620       57
   44.635       59
   44.650       63
   44.665       58
   44.680       62
   44.695       55
   44.710       45
   44.725       61
   44.740       68
   44.755       63
   44.770       79
   44.785       66
   44.800       59
   44.815       67
   44.830       63
   44.845       67
   44.860       60
   44.875       68
   44.890       52
   44.905       51
   44.920       76
   44.935       67
   44.950       59
   44.965       71
   44.980       65
   44.995       65
   45.010       62
   45.025       64
   45.040       74
   45.055       76
   45.070       74
   45.085       61
   45.100       78
   45.115       75
   45.130       76
   45.145       71
   45.160       68
   45.175       81
   45.190       81
   45.205       72
   45.220       66
   45.235       75
   45.250       64
   45.265       71
   45.280       77
   45.295       70
   45.310       67
   45.325       65
   45.340       74
   45.355       64
   45.370       71
   45.385       55
   45.400       52
   45.415       66
   45.430       55
   45.445       55
   45.460       63
   45.475       62
   45.490       52
   45.505       61
   45.520       70
   45.535       61
   45.550       66
   45.565       55
   45.580       61
   45.595       59
   45.610       71
   45.625       80
   45.640       60
   45.655       64
   45.670       59
   45.685       52
   45.700       76
   45.715       63
   45.730       60
   45.745       53
   45.760       49
   45.775       52
   45.790       55
   45.805       66
   45.820       35
   45.835       41
   45.850       45
   45.865       60
   45.880       57
   45.895       44
   45.910       65
   45.925       51
   45.940       57
   45.955       52
   45.970       54
   45.985       59
