    4.000       64
    4.015       62
    4.030       43
    4.045       54
    4.060       55
    4.075       60
    4.090       61
    4.105       46
    4.120       45
    4.135       53
    4.150       61
    4.165       57
    4.180       49
    4.195       48
    4.210       49
    4.225       53
    4.240       57
    4.255       49
    4.270       48
    4.285       49
    4.300       51
    4.315       54
    4.330       53
    4.345       50
    4.360       50
    4.375       54
    4.390       49
    4.405       53
    4.420       52
    4.435       49
    4.450       53
    4.465       48
    4.480       48
    4.495       45
    4.510       60
    4.525       56
    4.540       52
    4.555       55
    4.570       57
    4.585       48
    4.600       42
    4.615       54
    4.630       52
    4.645       49
    4.660       49
    4.675       47
    4.690       43
    4.705       43
    4.720       64
    4.735       67
    4.750       52
    4.765       53
    4.780       40
    4.795       44
    4.810       48
    4.825       48
    4.840       55
    4.855       44
    4.870       47
    4.885       42
    4.900       55
    4.915       49
    4.930       53
    4.945       59
    4.960       51
    4.975       48
    4.990       40
    5.005       46
    5.020       61
    5.035       42
    5.050       40
    5.065       48
    5.080       45
    5.095       40
    5.110       44
    5.125       49
    5.140       50
    5.155       47
    5.170       45
    5.185       46
    5.200       54
    5.215       46
    5.230       44
    5.245       44
    5.260       42
    5.275       49
    5.290       52
    5.305       49
    5.320       43
    5.335       59
    5.350       50
    5.365       43
    5.380       49
    5.395       52
    5.410       62
    5.425       51
    5.440       49
    5.455       49
    5.470       48
    5.485       58
    5.500       51
    5.515       48
    5.530       50
    5.545       47
    5.560       54
    5.575       48
    5.590       45
    5.605       48
    5.620       44
    5.635       54
    5.650       48
    5.665       39
    5.680       51
    5.695       42
    5.710       55
    5.725       56
    5.740       47
    5.755       55
    5.770       42
    5.785       61
    5.800       53
    5.815       48
    5.830       41
    5.845       55
    5.860       53
    5.875       63
    5.890       55
    5.905       47
    5.920       51
    5.935       48
    5.950       50
    5.965       54
    5.980       44
    5.995       52
    6.010       54
    6.025       51
    6.040       49
    6.055       47
    6.070       51
    6.085       49
    6.100       47
    6.115       45
    6.130       44
    6.145       49
    6.160       50
    6.175       49
    6.190       44
    6.205       51
    6.220       58
    6.235       59
    6.250       59
    6.265       67
    6.280       49
    6.295       57
    6.310       61
    6.325       56
    6.340       55
    6.355       64
    6.370       68
    6.385       68
    6.400       73
    6.415       75
    6.430       76
    6.445       65
    6.460       82
    6.475       99
    6.490      101
    6.505      106
    6.520      102
    6.535      101
    6.550      114
    6.565      150
    6.580      173
    6.595      204
    6.610      214
    6.625      218
    6.640      202
    6.655      204
    6.670      239
    6.685      174
    6.700      131
    6.715       94
    6.730       74
    6.745       46
    6.760       52
    6.775       53
    6.790       50
    6.805       46
    6.820       43
    6.835       51
    6.850       50
    6.865       41
    6.880       54
    6.895       41
    6.910       47
    6.925       48
    6.940       45
    6.955       42
    6.970       50
    6.985       45
    7.000       50
    7.015       60
    7.030       58
    7.045       60
    7.060       55
    7.075       66
    7.090       71
    7.105       67
    7.120       64
    7.135       65
    7.150       79
    7.165       98
    7.180      113
    7.195      112
    7.210       91
    7.225       63
    7.240       54
    7.255       54
    7.270       48
    7.285       43
    7.300       41
    7.315       41
    7.330       44
    7.345       42
    7.360       63
    7.375       46
    7.390       35
    7.405       44
    7.420       43
    7.435       34
    7.450       44
    7.465       47
    7.480       49
    7.495       45
    7.510       48
    7.525       44
    7.540       37
    7.555       47
    7.570       42
    7.585       43
    7.600       40
    7.615       42
    7.630       45
    7.645       53
    7.660       56
    7.675       52
    7.690       50
    7.705       34
    7.720       50
    7.735       49
    7.750       62
    7.765       49
    7.780       44
    7.795       36
    7.810       49
    7.825       51
    7.840       47
    7.855       39
    7.870       51
    7.885       49
    7.900       44
    7.915       43
    7.930       43
    7.945       47
    7.960       45
    7.975       44
    7.990       48
    8.005       52
    8.020       43
    8.035       39
    8.050       44
    8.065       43
    8.080       36
    8.095       41
    8.110       40
    8.125       51
    8.140       41
    8.155       39
    8.170       51
    8.185       50
    8.200       50
    8.215       50
    8.230       49
    8.245       39
    8.260       42
    8.275       42
    8.290       49
    8.305       53
    8.320       49
    8.335       37
    8.350       24
    8.365       39
    8.380       37
    8.395       45
    8.410       47
    8.425       54
    8.440       55
    8.455       44
    8.470       46
    8.485       44
    8.500       55
    8.515       40
    8.530       56
    8.545       61
    8.560       55
    8.575       63
    8.590       57
    8.605       47
    8.620       49
    8.635       41
    8.650       41
    8.665       44
    8.680       40
    8.695       40
    8.710       43
    8.725       44
    8.740       50
    8.755       45
    8.770       36
    8.785       36
    8.800       38
    8.815       59
    8.830       46
    8.845       42
    8.860       36
    8.875       43
    8.890       41
    8.905       45
    8.920       32
    8.935       51
    8.950       53
    8.965       51
    8.980       53
    8.995       56
    9.010       54
    9.025       52
    9.040       46
    9.055       50
    9.070       61
    9.085       53
    9.100       40
    9.115       40
    9.130       45
    9.145       59
    9.160       50
    9.175       58
    9.190       58
    9.205       61
    9.220       62
    9.235       53
    9.250       44
    9.265       42
    9.280       46
    9.295       49
    9.310       37
    9.325       41
    9.340       43
    9.355       51
    9.370       50
    9.385       40
    9.400       48
    9.415       43
    9.430       54
    9.445       46
    9.460       45
    9.475       47
    9.490       55
    9.505       44
    9.520       39
    9.535       42
    9.550       51
    9.565       56
    9.580       43
    9.595       49
    9.610       54
    9.625       51
    9.640       45
    9.655       59
    9.670       58
    9.685       57
    9.700       48
    9.715       41
    9.730       40
    9.745       51
    9.760       51
    9.775       60
    9.790       65
    9.805       64
    9.820       68
    9.835       60
    9.850       47
    9.865       48
    9.880       45
    9.895       49
    9.910       49
    9.925       30
    9.940       50
    9.955       42
    9.970       40
    9.985       43
   10.000       44
   10.015       49
   10.030       48
   10.045       44
   10.060       51
   10.075       44
   10.090       37
   10.105       45
   10.120       45
   10.135       36
   10.150       43
   10.165       50
   10.180       52
   10.195       45
   10.210       50
   10.225       57
   10.240       51
   10.255       62
   10.270       59
   10.285       51
   10.300       51
   10.315       67
   10.330       82
   10.345       73
   10.360       73
   10.375       77
   10.390       70
   10.405      102
   10.420      110
   10.435      102
   10.450      125
   10.465       97
   10.480       92
   10.495       95
   10.510       87
   10.525       55
   10.540       49
   10.555       45
   10.570       48
   10.585       52
   10.600       48
   10.615       47
   10.630       58
   10.645       60
   10.660       57
   10.675       61
   10.690       74
   10.705       72
   10.720       65
   10.735       79
   10.750       85
   10.765       90
   10.780       67
   10.795       75
   10.810       84
   10.825       97
   10.840      102
   10.855      116
   10.870      127
   10.885      128
   10.900       89
   10.915       57
   10.930       58
   10.945       48
   10.960       52
   10.975       51
   10.990       54
   11.005       58
   11.020       57
   11.035       56
   11.050       54
   11.065       71
   11.080       68
   11.095       79
   11.110       71
   11.125       69
   11.140       67
   11.155       60
   11.170       66
   11.185       71
   11.200       63
   11.215       76
   11.230      105
   11.245       99
   11.260       89
   11.275       79
   11.290       62
   11.305       49
   11.320       47
   11.335       59
   11.350       51
   11.365       39
   11.380       48
   11.395       59
   11.410       76
   11.425       74
   11.440       81
   11.455       61
   11.470       58
   11.485       45
   11.500       43
   11.515       56
   11.530       40
   11.545       47
   11.560       43
   11.575       41
   11.590       43
   11.605       43
   11.620       39
   11.635       43
   11.650       42
   11.665       43
   11.680       46
   11.695       58
   11.710       49
   11.725       49
   11.740       53
   11.755       57
   11.770       64
   11.785       77
   11.800       76
   11.815       65
   11.830       64
   11.845       63
   11.860       69
   11.875       77
   11.890       64
   11.905       58
   11.920       53
   11.935       39
   11.950       45
   11.965       47
   11.980       40
   11.995       53
   12.010       56
   12.025       46
   12.040       49
   12.055       61
   12.070       61
   12.085       67
   12.100       49
   12.115       44
   12.130       43
   12.145       45
   12.160       32
   12.175       34
   12.190       44
   12.205       40
   12.220       46
   12.235       47
   12.250       42
   12.265       38
   12.280       42
   12.295       42
   12.310       46
   12.325       55
   12.340       52
   12.355       46
   12.370       47
   12.385       45
   12.400       47
   12.415       43
   12.430       54
   12.445       49
   12.460       49
   12.475       59
   12.490       73
   12.505       88
   12.520       91
   12.535      105
   12.550      110
   12.565      124
   12.580      141
   12.595      171
   12.610      197
   12.625      233
   12.640      289
   12.655      409
   12.670      478
   12.685      463
   12.700      376
   12.715      305
   12.730      234
   12.745      249
   12.760      276
   12.775      332
   12.790      289
   12.805      248
   12.820      144
   12.835       85
   12.850       60
   12.865       55
   12.880       63
   12.895       52
   12.910       59
   12.925       67
   12.940       82
   12.955       76
   12.970       92
   12.985      109
   13.000      116
   13.015      130
   13.030      136
   13.045      200
   13.060      252
   13.075      269
   13.090      264
   13.105      228
   13.120      173
   13.135      157
   13.150      152
   13.165      166
   13.180      216
   13.195      271
   13.210      351
   13.225      441
   13.240      580
   13.255      615
   13.270      590
   13.285      488
   13.300      473
   13.315      531
   13.330      609
   13.345      861
   13.360     1097
   13.375     1292
   13.390     1100
   13.405      742
   13.420      429
   13.435      204
   13.450      127
   13.465      121
   13.480      101
   13.495      104
   13.510      106
   13.525      141
   13.540      159
   13.555      186
   13.570      216
   13.585      247
   13.600      275
   13.615      266
   13.630      292
   13.645      276
   13.660      272
   13.675      178
   13.690      117
   13.705       79
   13.720       58
   13.735       66
   13.750       65
   13.765       52
   13.780       62
   13.795       72
   13.810       78
   13.825       77
   13.840       88
   13.855       97
   13.870       89
   13.885      116
   13.900      131
   13.915       94
   13.930       73
   13.945       53
   13.960       51
   13.975       49
   13.990       43
   14.005       52
   14.020       48
   14.035       43
   14.050       46
   14.065       36
   14.080       43
   14.095       47
   14.110       53
   14.125       52
   14.140       45
   14.155       43
   14.170       51
   14.185       50
   14.200       53
   14.215       51
   14.230       56
   14.245       70
   14.260       72
   14.275       86
   14.290       97
   14.305      114
   14.320      135
   14.335      169
   14.350      163
   14.365      147
   14.380      134
   14.395      138
   14.410      136
   14.425      145
   14.440      188
   14.455      198
   14.470      188
   14.485      194
   14.500      213
   14.515      286
   14.530      346
   14.545      343
   14.560      269
   14.575      175
   14.590      112
   14.605       69
   14.620       53
   14.635       44
   14.650       47
   14.665       48
   14.680       45
   14.695       45
   14.710       52
   14.725       45
   14.740       39
   14.755       47
   14.770       42
   14.785       37
   14.800       45
   14.815       44
   14.830       54
   14.845       45
   14.860       57
   14.875       41
   14.890       47
   14.905       49
   14.920       55
   14.935       69
   14.950       98
   14.965      101
   14.980      109
   14.995      144
   15.010      176
   15.025      216
   15.040      260
   15.055      334
   15.070      331
   15.085      361
   15.100      443
   15.115      579
   15.130      779
   15.145      827
   15.160      691
   15.175      470
   15.190      299
   15.205      164
   15.220      111
   15.235      122
   15.250      110
   15.265      102
   15.280      107
   15.295      130
   15.310      171
   15.325      192
   15.340      213
   15.355      217
   15.370      217
   15.385      206
   15.400      161
   15.415      159
   15.430      156
   15.445      176
   15.460      140
   15.475      110
   15.490      100
   15.505       84
   15.520       94
   15.535      108
   15.550      120
   15.565      141
   15.580      166
   15.595      185
   15.610      238
   15.625      310
   15.640      400
   15.655      350
   15.670      267
   15.685      202
   15.700      127
   15.715      125
   15.730      127
   15.745      120
   15.760      144
   15.775      168
   15.790      198
   15.805      241
   15.820      298
   15.835      277
   15.850      243
   15.865      187
   15.880      123
   15.895       80
   15.910       64
   15.925       61
   15.940       62
   15.955       64
   15.970       60
   15.985       55
   16.000       80
   16.015       60
   16.030       72
   16.045      102
   16.060       93
   16.075      126
   16.090      130
   16.105      161
   16.120      194
   16.135      241
   16.150      335
   16.165      429
   16.180      384
   16.195      354
   16.210      225
   16.225      123
   16.240       90
   16.255       79
   16.270      101
   16.285       98
   16.300      107
   16.315      117
   16.330      132
   16.345      167
   16.360      207
   16.375      229
   16.390      222
   16.405      221
   16.420      233
   16.435      263
   16.450      320
   16.465      424
   16.480      453
   16.495      415
   16.510      308
   16.525      241
   16.540      202
   16.555      209
   16.570      228
   16.585      288
   16.600      347
   16.615      431
   16.630      423
   16.645      351
   16.660      285
   16.675      200
   16.690      191
   16.705      198
   16.720      255
   16.735      306
   16.750      372
   16.765      377
   16.780      328
   16.795      321
   16.810      316
   16.825      332
   16.840      344
   16.855      336
   16.870      327
   16.885      282
   16.900      198
   16.915      142
   16.930       96
   16.945       76
   16.960       81
   16.975       86
   16.990       95
   17.005      112
   17.020      119
   17.035      147
   17.050      162
   17.065      201
   17.080      220
   17.095      214
   17.110      188
   17.125      131
   17.140      106
   17.155       95
   17.170      118
   17.185      139
   17.200      172
   17.215      183
   17.230      242
   17.245      286
   17.260      316
   17.275      334
   17.290      311
   17.305      253
   17.320      202
   17.335      129
   17.350      132
   17.365      138
   17.380      128
   17.395      116
   17.410      109
   17.425      120
   17.440      104
   17.455      119
   17.470      147
   17.485      178
   17.500      220
   17.515      263
   17.530      234
   17.545      208
   17.560      138
   17.575       96
   17.590       77
   17.605       71
   17.620       60
   17.635       73
   17.650       68
   17.665       76
   17.680       73
   17.695      117
   17.710      107
   17.725      131
   17.740      100
   17.755       89
   17.770       97
   17.785      114
   17.800      119
   17.815      106
   17.830       94
   17.845       84
   17.860       79
   17.875       81
   17.890       75
   17.905       81
   17.920       65
   17.935       61
   17.950       60
   17.965       48
   17.980       53
   17.995       55
   18.010       51
   18.025       53
   18.040       57
   18.055       59
   18.070       64
   18.085       65
   18.100       61
   18.115       62
   18.130       55
   18.145       61
   18.160       69
   18.175       70
   18.190       58
   18.205       57
   18.220       66
   18.235       78
   18.250       73
   18.265       87
   18.280      104
   18.295      126
   18.310      136
   18.325      163
   18.340      172
   18.355      160
   18.370      162
   18.385      126
   18.400      105
   18.415       83
   18.430       63
   18.445       43
   18.460       54
   18.475       44
   18.490       50
   18.505       75
   18.520       61
   18.535       77
   18.550       81
   18.565       79
   18.580       98
   18.595      130
   18.610      167
   18.625      159
   18.640      176
   18.655      153
   18.670      146
   18.685      143
   18.700      172
   18.715      217
   18.730      213
   18.745      220
   18.760      182
   18.775      130
   18.790      105
   18.805       84
   18.820       83
   18.835       80
   18.850       65
   18.865       66
   18.880       48
   18.895       83
   18.910      111
   18.925      132
   18.940      128
   18.955      149
   18.970      145
   18.985      138
   19.000      122
   19.015      124
   19.030      129
   19.045      103
   19.060       88
   19.075       75
   19.090       58
   19.105       36
   19.120       39
   19.135       61
   19.150       55
   19.165       53
   19.180       46
   19.195       50
   19.210       39
   19.225       53
   19.240       43
   19.255       35
   19.270       42
   19.285       42
   19.300       45
   19.315       46
   19.330       44
   19.345       41
   19.360       47
   19.375       48
   19.390       45
   19.405       51
   19.420       47
   19.435       45
   19.450       43
   19.465       55
   19.480       59
   19.495       55
   19.510       59
   19.525       65
   19.540       55
   19.555       80
   19.570       75
   19.585       80
   19.600       82
   19.615      111
   19.630      133
   19.645      168
   19.660      186
   19.675      165
   19.690      179
   19.705      177
   19.720      118
   19.735      127
   19.750       94
   19.765       78
   19.780       86
   19.795       85
   19.810       92
   19.825      111
   19.840      114
   19.855      149
   19.870      179
   19.885      213
   19.900      294
   19.915      371
   19.930      442
   19.945      480
   19.960      403
   19.975      339
   19.990      242
   20.005      186
   20.020      161
   20.035      170
   20.050      178
   20.065      210
   20.080      242
   20.095      225
   20.110      213
   20.125      205
   20.140      160
   20.155      141
   20.170       93
   20.185       71
   20.200       73
   20.215       66
   20.230       69
   20.245       75
   20.260       76
   20.275       96
   20.290       98
   20.305      105
   20.320       95
   20.335       76
   20.350       59
   20.365       58
   20.380       51
   20.395       45
   20.410       45
   20.425       50
   20.440       48
   20.455       38
   20.470       40
   20.485       46
   20.500       46
   20.515       57
   20.530       49
   20.545       47
   20.560       44
   20.575       60
   20.590       63
   20.605       75
   20.620       71
   20.635       81
   20.650       85
   20.665       78
   20.680       69
   20.695       54
   20.710       57
   20.725       75
   20.740       70
   20.755       76
   20.770       76
   20.785       94
   20.800      122
   20.815      155
   20.830      170
   20.845      198
   20.860      172
   20.875      190
   20.890      166
   20.905      223
   20.920      207
   20.935      201
   20.950      159
   20.965      139
   20.980      103
   20.995       84
   21.010       60
   21.025       48
   21.040       53
   21.055       56
   21.070       59
   21.085       55
   21.100       56
   21.115       48
   21.130       57
   21.145       66
   21.160       76
   21.175       53
   21.190       50
   21.205       57
   21.220       60
   21.235       67
   21.250       77
   21.265       85
   21.280       86
   21.295       86
   21.310       93
   21.325       84
   21.340       70
   21.355       50
   21.370       56
   21.385       40
   21.400       45
   21.415       40
   21.430       49
   21.445       48
   21.460       52
   21.475       56
   21.490       47
   21.505       49
   21.520       66
   21.535       69
   21.550       76
   21.565       87
   21.580      111
   21.595      124
   21.610      151
   21.625      193
   21.640      214
   21.655      186
   21.670      200
   21.685      156
   21.700      162
   21.715      132
   21.730      137
   21.745      150
   21.760      158
   21.775      203
   21.790      258
   21.805      341
   21.820      417
   21.835      507
   21.850      557
   21.865      573
   21.880      426
   21.895      285
   21.910      209
   21.925      158
   21.940      130
   21.955      150
   21.970      142
   21.985       97
   22.000       97
   22.015       77
   22.030       69
   22.045       47
   22.060       51
   22.075       46
   22.090       40
   22.105       59
   22.120       46
   22.135       49
   22.150       51
   22.165       49
   22.180       62
   22.195       74
   22.210       73
   22.225       71
   22.240       77
   22.255       63
   22.270       60
   22.285       68
   22.300       72
   22.315       75
   22.330       97
   22.345       87
   22.360       86
   22.375       89
   22.390       85
   22.405       87
   22.420      115
   22.435      142
   22.450      138
   22.465      136
   22.480      120
   22.495      100
   22.510       75
   22.525       77
   22.540       73
   22.555       71
   22.570       99
   22.585      107
   22.600      140
   22.615      148
   22.630      157
   22.645      191
   22.660      196
   22.675      193
   22.690      183
   22.705      146
   22.720      117
   22.735      105
   22.750       95
   22.765       91
   22.780      107
   22.795      122
   22.810      137
   22.825      162
   22.840      185
   22.855      201
   22.870      217
   22.885      222
   22.900      229
   22.915      211
   22.930      185
   22.945      166
   22.960      158
   22.975      145
   22.990      124
   23.005       96
   23.020       70
   23.035       57
   23.050       70
   23.065       88
   23.080       90
   23.095       97
   23.110      100
   23.125      109
   23.140       93
   23.155       85
   23.170       75
   23.185       82
   23.200       89
   23.215       92
   23.230       89
   23.245      103
   23.260      129
   23.275      120
   23.290       97
   23.305       86
   23.320       71
   23.335       59
   23.350       53
   23.365       53
   23.380       62
   23.395       80
   23.410       78
   23.425       79
   23.440       75
   23.455       86
   23.470       77
   23.485       64
   23.500       60
   23.515       54
   23.530       38
   23.545       38
   23.560       48
   23.575       43
   23.590       34
   23.605       43
   23.620       40
   23.635       45
   23.650       51
   23.665       48
   23.680       49
   23.695       58
   23.710       48
   23.725       63
   23.740       57
   23.755       47
   23.770       51
   23.785       49
   23.800       55
   23.815       47
   23.830       53
   23.845       43
   23.860       70
   23.875       74
   23.890       86
   23.905       91
   23.920       88
   23.935       74
   23.950       82
   23.965       65
   23.980       66
   23.995       75
   24.010       80
   24.025      101
   24.040      118
   24.055      125
   24.070      119
   24.085      103
   24.100      100
   24.115       66
   24.130       53
   24.145       43
   24.160       47
   24.175       48
   24.190       59
   24.205       60
   24.220       69
   24.235       79
   24.250       78
   24.265      108
   24.280      138
   24.295      121
   24.310      135
   24.325      122
   24.340       98
   24.355       80
   24.370       69
   24.385       58
   24.400       47
   24.415       57
   24.430       62
   24.445       53
   24.460       72
   24.475       63
   24.490       59
   24.505       69
   24.520       69
   24.535       70
   24.550       73
   24.565       73
   24.580       70
   24.595       76
   24.610       80
   24.625       91
   24.640       78
   24.655       83
   24.670       65
   24.685       81
   24.700       87
   24.715       86
   24.730       67
   24.745       70
   24.760       65
   24.775       65
   24.790       71
   24.805       79
   24.820       73
   24.835       65
   24.850       54
   24.865       57
   24.880       43
   24.895       60
   24.910       59
   24.925       61
   24.940       83
   24.955       78
   24.970       97
   24.985      116
   25.000      138
   25.015      126
   25.030      120
   25.045      113
   25.060       98
   25.075       85
   25.090       95
   25.105       82
   25.120       83
   25.135       79
   25.150       96
   25.165       87
   25.180       80
   25.195       90
   25.210       97
   25.225      101
   25.240       97
   25.255       93
   25.270       81
   25.285       61
   25.300       66
   25.315       57
   25.330       53
   25.345       52
   25.360       59
   25.375       49
   25.390       60
   25.405       65
   25.420       83
   25.435       97
   25.450       94
   25.465      120
   25.480      128
   25.495      100
   25.510      104
   25.525       98
   25.540       83
   25.555       82
   25.570       62
   25.585       62
   25.600       71
   25.615       91
   25.630      102
   25.645      101
   25.660      118
   25.675      160
   25.690      186
   25.705      225
   25.720      239
   25.735      223
   25.750      226
   25.765      185
   25.780      167
   25.795      119
   25.810      100
   25.825       91
   25.840       90
   25.855      111
   25.870      104
   25.885      129
   25.900      140
   25.915      154
   25.930      164
   25.945      158
   25.960      156
   25.975      133
   25.990      100
   26.005       84
   26.020       72
   26.035       70
   26.050       77
   26.065       72
   26.080       84
   26.095       86
   26.110       86
   26.125       89
   26.140      109
   26.155      112
   26.170      113
   26.185      121
   26.200      109
   26.215      122
   26.230       99
   26.245       84
   26.260       72
   26.275       69
   26.290       74
   26.305       69
   26.320       73
   26.335       67
   26.350       65
   26.365       68
   26.380       65
   26.395       62
   26.410       67
   26.425       79
   26.440       78
   26.455       78
   26.470       52
   26.485       55
   26.500       55
   26.515       43
   26.530       46
   26.545       49
   26.560       56
   26.575       54
   26.590       50
   26.605       54
   26.620       46
   26.635       59
   26.650       81
   26.665       80
   26.680      107
   26.695      109
   26.710       97
   26.725       97
   26.740       81
   26.755       64
   26.770       65
   26.785       60
   26.800       55
   26.815       62
   26.830       52
   26.845       56
   26.860       74
   26.875       77
   26.890       86
   26.905      123
   26.920      153
   26.935      173
   26.950      214
   26.965      202
   26.980      197
   26.995      185
   27.010      183
   27.025      188
   27.040      169
   27.055      142
   27.070      132
   27.085      113
   27.100       95
   27.115       76
   27.130       66
   27.145       58
   27.160       54
   27.175       55
   27.190       67
   27.205       73
   27.220       73
   27.235       74
   27.250       84
   27.265       83
   27.280       85
   27.295       78
   27.310       76
   27.325       74
   27.340       75
   27.355       70
   27.370       79
   27.385       85
   27.400       66
   27.415       80
   27.430       84
   27.445       83
   27.460       71
   27.475       81
   27.490      107
   27.505      113
   27.520      124
   27.535      135
   27.550      132
   27.565      149
   27.580      137
   27.595      153
   27.610      183
   27.625      182
   27.640      193
   27.655      187
   27.670      188
   27.685      196
   27.700      178
   27.715      159
   27.730      147
   27.745      121
   27.760      118
   27.775      109
   27.790       97
   27.805       95
   27.820       73
   27.835       78
   27.850       79
   27.865       98
   27.880       90
   27.895      113
   27.910      132
   27.925      131
   27.940      121
   27.955      111
   27.970      127
   27.985      101
   28.000       83
   28.015       73
   28.030       60
   28.045       51
   28.060       48
   28.075       56
   28.090       59
   28.105       57
   28.120       70
   28.135       78
   28.150       81
   28.165       81
   28.180      102
   28.195       92
   28.210       76
   28.225       97
   28.240       79
   28.255       93
   28.270       88
   28.285       66
   28.300       86
   28.315      111
   28.330       93
   28.345       99
   28.360      104
   28.375      117
   28.390      104
   28.405       98
   28.420       99
   28.435       91
   28.450       91
   28.465       84
   28.480       90
   28.495       85
   28.510       81
   28.525       75
   28.540       61
   28.555       51
   28.570       56
   28.585       57
   28.600       57
   28.615       50
   28.630       44
   28.645       62
   28.660       56
   28.675       65
   28.690       56
   28.705       75
   28.720       80
   28.735       71
   28.750       79
   28.765       88
   28.780       81
   28.795       78
   28.810       71
   28.825       61
   28.840       56
   28.855       70
   28.870       66
   28.885       84
   28.900       86
   28.915       95
   28.930       97
   28.945      103
   28.960      105
   28.975      102
   28.990      104
   29.005      106
   29.020      104
   29.035      112
   29.050      102
   29.065      100
   29.080      109
   29.095      104
   29.110      109
   29.125      109
   29.140      107
   29.155      111
   29.170       95
   29.185       79
   29.200       82
   29.215       91
   29.230       78
   29.245       77
   29.260       91
   29.275       97
   29.290       86
   29.305       84
   29.320       74
   29.335       69
   29.350       68
   29.365       74
   29.380       83
   29.395       67
   29.410       70
   29.425       60
   29.440       57
   29.455       54
   29.470       60
   29.485       57
   29.500       72
   29.515       76
   29.530       78
   29.545       96
   29.560       90
   29.575      104
   29.590       92
   29.605       77
   29.620       74
   29.635       76
   29.650       96
   29.665      106
   29.680      129
   29.695      145
   29.710      142
   29.725      161
   29.740      148
   29.755      132
   29.770      117
   29.785      102
   29.800      102
   29.815       88
   29.830       89
   29.845       85
   29.860       80
   29.875       77
   29.890       74
   29.905       81
   29.920       81
   29.935       77
   29.950       82
   29.965       63
   29.980       64
   29.995       56
   30.010       58
   30.025       52
   30.040       54
   30.055       51
   30.070       48
   30.085       55
   30.100       55
   30.115       56
   30.130       62
   30.145       64
   30.160       59
   30.175       55
   30.190       51
   30.205       61
   30.220       57
   30.235       55
   30.250       59
   30.265       58
   30.280       61
   30.295       74
   30.310       75
   30.325       64
   30.340       77
   30.355       63
   30.370       69
   30.385       63
   30.400       61
   30.415       61
   30.430       64
   30.445       74
   30.460       78
   30.475       60
   30.490       61
   30.505       61
   30.520       66
   30.535       70
   30.550       72
   30.565       80
   30.580       79
   30.595       76
   30.610       77
   30.625       91
   30.640       94
   30.655      105
   30.670      104
   30.685      110
   30.700      102
   30.715       84
   30.730       75
   30.745       69
   30.760       62
   30.775       63
   30.790       54
   30.805       53
   30.820       54
   30.835       57
   30.850       48
   30.865       44
   30.880       60
   30.895       68
   30.910       60
   30.925       63
   30.940       79
   30.955       86
   30.970       88
   30.985       93
   31.000      122
   31.015      117
   31.030      120
   31.045      109
   31.060      100
   31.075       97
   31.090       97
   31.105       69
   31.120       71
   31.135       75
   31.150       58
   31.165       72
   31.180       72
   31.195       90
   31.210       86
   31.225       80
   31.240       80
   31.255       80
   31.270       82
   31.285       76
   31.300       71
   31.315       77
   31.330       58
   31.345       67
   31.360       71
   31.375       82
   31.390       90
   31.405       96
   31.420      106
   31.435       82
   31.450       71
   31.465       75
   31.480       89
   31.495       85
   31.510       79
   31.525       74
   31.540       80
   31.555       84
   31.570       92
   31.585      106
   31.600      108
   31.615      115
   31.630      101
   31.645       98
   31.660      100
   31.675       98
   31.690       99
   31.705       89
   31.720       83
   31.735       96
   31.750       97
   31.765      100
   31.780      117
   31.795      109
   31.810      100
   31.825      105
   31.840       96
   31.855       94
   31.870       88
   31.885       99
   31.900      105
   31.915      110
   31.930      132
   31.945      130
   31.960      119
   31.975      113
   31.990       85
   32.005       90
   32.020       81
   32.035       77
   32.050       80
   32.065       68
   32.080       82
   32.095       84
   32.110       77
   32.125       77
   32.140       82
   32.155       93
   32.170      100
   32.185      104
   32.200       97
   32.215       95
   32.230       84
   32.245       70
   32.260       58
   32.275       67
   32.290       73
   32.305       66
   32.320       53
   32.335       50
   32.350       59
   32.365       60
   32.380       64
   32.395       56
   32.410       62
   32.425       59
   32.440       68
   32.455       69
   32.470       61
   32.485       55
   32.500       64
   32.515       59
   32.530       52
   32.545       52
   32.560       41
   32.575       46
   32.590       54
   32.605       63
   32.620       65
   32.635       63
   32.650       60
   32.665       58
   32.680       57
   32.695       61
   32.710       60
   32.725       67
   32.740       48
   32.755       49
   32.770       62
   32.785       57
   32.800       48
   32.815       44
   32.830       49
   32.845       52
   32.860       66
   32.875       66
   32.890       60
   32.905       66
   32.920       62
   32.935       70
   32.950       83
   32.965       88
   32.980       87
   32.995      118
   33.010      120
   33.025      115
   33.040      103
   33.055      109
   33.070      115
   33.085      108
   33.100      100
   33.115       80
   33.130       77
   33.145       71
   33.160       66
   33.175       79
   33.190       62
   33.205       71
   33.220       70
   33.235       86
   33.250       71
   33.265       62
   33.280       82
   33.295       69
   33.310       70
   33.325       70
   33.340       58
   33.355       61
   33.370       58
   33.385       64
   33.400       69
   33.415       75
   33.430       79
   33.445       83
   33.460       75
   33.475       86
   33.490      100
   33.505       97
   33.520      120
   33.535      125
   33.550      138
   33.565      133
   33.580      120
   33.595      106
   33.610      118
   33.625      107
   33.640      112
   33.655      112
   33.670       99
   33.685       91
   33.700       86
   33.715       82
   33.730       93
   33.745       82
   33.760       71
   33.775       79
   33.790       94
   33.805       81
   33.820       93
   33.835      122
   33.850      127
   33.865      141
   33.880      126
   33.895      142
   33.910      139
   33.925      123
   33.940       89
   33.955       87
   33.970       68
   33.985       62
   34.000       87
   34.015       86
   34.030      104
   34.045       99
   34.060       94
   34.075       94
   34.090       98
   34.105       98
   34.120       85
   34.135       87
   34.150       79
   34.165       80
   34.180       78
   34.195       84
   34.210       68
   34.225       72
   34.240       79
   34.255       74
   34.270       77
   34.285       56
   34.300       66
   34.315       57
   34.330       55
   34.345       56
   34.360       55
   34.375       55
   34.390       69
   34.405       65
   34.420       70
   34.435       62
   34.450       65
   34.465       64
   34.480       54
   34.495       66
   34.510       74
   34.525       85
   34.540       86
   34.555       78
   34.570       91
   34.585       85
   34.600       77
   34.615       86
   34.630       88
   34.645       78
   34.660       87
   34.675       66
   34.690       62
   34.705       44
   34.720       45
   34.735       52
   34.750       60
   34.765       63
   34.780       64
   34.795       75
   34.810       72
   34.825       69
   34.840       61
   34.855       63
   34.870       70
   34.885       70
   34.900       61
   34.915       60
   34.930       66
   34.945       74
   34.960       73
   34.975       64
   34.990       71
   35.005       71
   35.020       65
   35.035       58
   35.050       58
   35.065       75
   35.080       81
   35.095       71
   35.110       83
   35.125       96
   35.140       96
   35.155       98
   35.170       88
   35.185       81
   35.200       79
   35.215       90
   35.230       83
   35.245       93
   35.260       93
   35.275       94
   35.290       89
   35.305       78
   35.320       78
   35.335       88
   35.350      100
   35.365      105
   35.380      111
   35.395      111
   35.410      110
   35.425      116
   35.440      108
   35.455      125
   35.470      123
   35.485      126
   35.500      145
   35.515      148
   35.530      131
   35.545      117
   35.560      112
   35.575      100
   35.590      117
   35.605      102
   35.620      127
   35.635      143
   35.650      139
   35.665      146
   35.680      128
   35.695      119
   35.710       97
   35.725       91
   35.740       78
   35.755       85
   35.770       95
   35.785       74
   35.800       75
   35.815       77
   35.830       67
   35.845       65
   35.860       71
   35.875       65
   35.890       65
   35.905       64
   35.920       49
   35.935       54
   35.950       61
   35.965       61
   35.980       49
   35.995       45
   36.010       51
   36.025       67
   36.040       61
   36.055       74
   36.070       67
   36.085       57
   36.100       56
   36.115       57
   36.130       55
   36.145       63
   36.160       56
   36.175       61
   36.190       67
   36.205       72
   36.220       59
   36.235       56
   36.250       69
   36.265       56
   36.280       63
   36.295       75
   36.310       79
   36.325       72
   36.340       68
   36.355       72
   36.370       89
   36.385       86
   36.400       71
   36.415       67
   36.430       65
   36.445       64
   36.460       58
   36.475       50
   36.490       50
   36.505       55
   36.520       65
   36.535       52
   36.550       60
   36.565       47
   36.580       64
   36.595       58
   36.610       57
   36.625       76
   36.640       77
   36.655       65
   36.670       57
   36.685       66
   36.700       51
   36.715       51
   36.730       64
   36.745       68
   36.760       66
   36.775       78
   36.790       76
   36.805       96
   36.820       94
   36.835       91
   36.850       87
   36.865       75
   36.880       62
   36.895       70
   36.910       64
   36.925       61
   36.940       69
   36.955       68
   36.970       73
   36.985       74
   37.000       56
   37.015       73
   37.030       77
   37.045       68
   37.060       65
   37.075       76
   37.090       73
   37.105       75
   37.120       67
   37.135       73
   37.150       85
   37.165       73
   37.180       78
   37.195       69
   37.210       66
   37.225       68
   37.240       66
   37.255       66
   37.270       64
   37.285       74
   37.300       78
   37.315       75
   37.330       67
   37.345       67
   37.360       76
   37.375       80
   37.390       75
   37.405       87
   37.420       90
   37.435       71
   37.450       69
   37.465       67
   37.480       58
   37.495       50
   37.510       51
   37.525       45
   37.540       39
   37.555       53
   37.570       58
   37.585       48
   37.600       54
   37.615       51
   37.630       47
   37.645       55
   37.660       61
   37.675       67
   37.690       61
   37.705       63
   37.720       60
   37.735       56
   37.750       55
   37.765       55
   37.780       66
   37.795       60
   37.810       66
   37.825       59
   37.840       59
   37.855       52
   37.870       66
   37.885       59
   37.900       67
   37.915       65
   37.930       70
   37.945       71
   37.960       77
   37.975       61
   37.990       53
   38.005       71
   38.020       72
   38.035       68
   38.050       77
   38.065       75
   38.080       74
   38.095       72
   38.110       66
   38.125       63
   38.140       64
   38.155       67
   38.170       63
   38.185       51
   38.200       45
   38.215       51
   38.230       58
   38.245       63
   38.260       67
   38.275       81
   38.290       74
   38.305       61
   38.320       69
   38.335       62
   38.350       55
   38.365       67
   38.380       58
   38.395       59
   38.410       66
   38.425       73
   38.440      106
   38.455      106
   38.470       96
   38.485       97
   38.500       98
   38.515      100
   38.530       78
   38.545       69
   38.560       61
   38.575       73
   38.590       75
   38.605       72
   38.620       64
   38.635       78
   38.650       72
   38.665       57
   38.680       67
   38.695       77
   38.710       90
   38.725       73
   38.740       75
   38.755       74
   38.770       59
   38.785       80
   38.800       80
   38.815       68
   38.830       65
   38.845       55
   38.860       60
   38.875       69
   38.890       73
   38.905       63
   38.920       69
   38.935       68
   38.950       64
   38.965       75
   38.980       69
   38.995       58
   39.010       72
   39.025       74
   39.040       76
   39.055       82
   39.070       58
   39.085       65
   39.100       69
   39.115       65
   39.130       57
   39.145       55
   39.160       65
   39.175       64
   39.190       60
   39.205       64
   39.220       50
   39.235       59
   39.250       73
   39.265       71
   39.280       67
   39.295       55
   39.310       50
   39.325       67
   39.340       60
   39.355       66
   39.370       58
   39.385       55
   39.400       62
   39.415       56
   39.430       50
   39.445       59
   39.460       49
   39.475       51
   39.490       63
   39.505       59
   39.520       51
   39.535       53
   39.550       50
   39.565       48
   39.580       52
   39.595       47
   39.610       63
   39.625       56
   39.640       51
   39.655       52
   39.670       57
   39.685       62
   39.700       70
   39.715       77
   39.730       63
   39.745       52
   39.760       61
   39.775       57
   39.790       63
   39.805       65
   39.820       73
   39.835       80
   39.850       71
   39.865       94
   39.880       74
   39.895       85
   39.910       78
   39.925       71
   39.940       81
   39.955       75
   39.970       71
   39.985       75
   40.000       65
   40.015       73
   40.030       57
   40.045       63
   40.060       57
   40.075       53
   40.090       63
   40.105       61
   40.120       59
   40.135       47
   40.150       57
   40.165       59
   40.180       59
   40.195       50
   40.210       46
   40.225       57
   40.240       66
   40.255       65
   40.270       61
   40.285       57
   40.300       59
   40.315       59
   40.330       57
   40.345       59
   40.360       63
   40.375       61
   40.390       65
   40.405       58
   40.420       78
   40.435       72
   40.450       74
   40.465       70
   40.480       69
   40.495       71
   40.510       72
   40.525       65
   40.540       75
   40.555       69
   40.570       89
   40.585       83
   40.600       74
   40.615       69
   40.630       66
   40.645       72
   40.660       81
   40.675       66
   40.690       54
   40.705       57
   40.720       68
   40.735       66
   40.750       64
   40.765       68
   40.780       80
   40.795       94
   40.810       81
   40.825       71
   40.840       84
   40.855       86
   40.870       81
   40.885       86
   40.900       74
   40.915       70
   40.930       78
   40.945       73
   40.960       76
   40.975       63
   40.990       53
   41.005       62
   41.020       71
   41.035       69
   41.050       63
   41.065       58
   41.080       59
   41.095       72
   41.110       62
   41.125       58
   41.140       62
   41.155       60
   41.170       52
   41.185       59
   41.200       54
   41.215       62
   41.230       50
   41.245       52
   41.260       55
   41.275       58
   41.290       61
   41.305       61
   41.320       61
   41.335       58
   41.350       51
   41.365       48
   41.380       42
   41.395       48
   41.410       52
   41.425       47
   41.440       46
   41.455       42
   41.470       45
   41.485       62
   41.500       57
   41.515       57
   41.530       61
   41.545       52
   41.560       52
   41.575       53
   41.590       50
   41.605       51
   41.620       62
   41.635       62
   41.650       61
   41.665       46
   41.680       53
   41.695       54
   41.710       53
   41.725       48
   41.740       70
   41.755       53
   41.770       54
   41.785       70
   41.800       63
   41.815       65
   41.830       62
   41.845       68
   41.860       75
   41.875       60
   41.890       64
   41.905       58
   41.920       45
   41.935       63
   41.950       61
   41.965       51
   41.980       63
   41.995       54
   42.010       49
   42.025       61
   42.040       68
   42.055       61
   42.070       59
   42.085       57
   42.100       72
   42.115       67
   42.130       55
   42.145       61
   42.160       64
   42.175       60
   42.190       61
   42.205       58
   42.220       64
   42.235       66
   42.250       52
   42.265       65
   42.280       68
   42.295       46
   42.310       55
   42.325       67
   42.340       57
   42.355       57
   42.370       68
   42.385       63
   42.400       66
   42.415       70
   42.430       67
   42.445       66
   42.460       70
   42.475       73
   42.490       78
   42.505       76
   42.520       62
   42.535       58
   42.550       78
   42.565       63
   42.580       68
   42.595       65
   42.610       60
   42.625       58
   42.640       56
   42.655       54
   42.670       53
   42.685       53
   42.700       56
   42.715       48
   42.730       45
   42.745       48
   42.760       52
   42.775       57
   42.790       55
   42.805       41
   42.820       50
   42.835       56
   42.850       59
   42.865       55
   42.880       49
   42.895       49
   42.910       59
   42.925       56
   42.940       54
   42.955       49
   42.970       62
   42.985       44
   43.000       45
   43.015       59
   43.030       58
   43.045       52
   43.060       52
   43.075       54
   43.090       54
   43.105       57
   43.120       70
   43.135       52
   43.150       49
   43.165       55
   43.180       62
   43.195       52
   43.210       62
   43.225       60
   43.240       58
   43.255       75
   43.270       62
   43.285       68
   43.300       54
   43.315       60
   43.330       65
   43.345       49
   43.360       57
   43.375       58
   43.390       58
   43.405       68
   43.420       50
   43.435       51
   43.450       60
   43.465       54
   43.480       53
   43.495       54
   43.510       60
   43.525       60
   43.540       52
   43.555       48
   43.570       46
   43.585       53
   43.600       44
   43.615       51
   43.630       65
   43.645       63
   43.660       59
   43.675       66
   43.690       57
   43.705       48
   43.720       54
   43.735       55
   43.750       59
   43.765       66
   43.780       51
   43.795       59
   43.810       47
   43.825       63
   43.840       56
   43.855       50
   43.870       53
   43.885       64
   43.900       51
   43.915       69
   43.930       57
   43.945       55
   43.960       71
   43.975       59
   43.990       54
   44.005       50
   44.020       50
   44.035       54
   44.050       47
   44.065       54
   44.080       62
   44.095       54
   44.110       65
   44.125       67
   44.140       64
   44.155       62
   44.170       61
   44.185       58
   44.200       67
   44.215       71
   44.230       71
   44.245       70
   44.260       75
   44.275       71
   44.290       79
   44.305       74
   44.320       72
   44.335       54
   44.350       46
   44.365       55
   44.380       62
   44.395       65
   44.410       62
   44.425       61
   44.440       58
   44.455       63
   44.470       60
   44.485       68
   44.500       67
   44.515       65
   44.530       74
   44.545       69
   44.560       60
   44.575       43
   44.590       64
   44.605       59
   44.620       76
   44.635       60
   44.650       52
   44.665       61
   44.680       66
   44.695       56
   44.710       56
   44.725       60
   44.740       61
   44.755       73
   44.770       67
   44.785       69
   44.800       79
   44.815       79
   44.830       87
   44.845       79
   44.860       80
   44.875       82
   44.890       57
   44.905       66
   44.920       50
   44.935       59
   44.950       55
   44.965       60
   44.980       63
   44.995       78
   45.010       58
   45.025       57
   45.040       61
   45.055       76
   45.070       67
   45.085       66
   45.100       67
   45.115       68
   45.130       69
   45.145       79
   45.160       74
   45.175       83
   45.190       81
   45.205       86
   45.220       74
   45.235       69
   45.250       75
   45.265       73
   45.280       79
   45.295       65
   45.310       64
   45.325       57
   45.340       68
   45.355       60
   45.370       59
   45.385       64
   45.400       60
   45.415       55
   45.430       64
   45.445       57
   45.460       59
   45.475       59
   45.490       57
   45.505       50
   45.520       69
   45.535       67
   45.550       71
   45.565       64
   45.580       64
   45.595       62
   45.610       57
   45.625       63
   45.640       51
   45.655       72
   45.670       62
   45.685       59
   45.700       50
   45.715       57
   45.730       42
   45.745       46
   45.760       50
   45.775       46
   45.790       43
   45.805       49
   45.820       44
   45.835       53
   45.850       56
   45.865       60
   45.880       55
   45.895       53
   45.910       47
   45.925       48
   45.940       44
   45.955       49
   45.970       55
   45.985       57
