    4.000       64
    4.015       62
    4.030       53
    4.045       50
    4.060       49
    4.075       43
    4.090       50
    4.105       48
    4.120       48
    4.135       44
    4.150       49
    4.165       56
    4.180       69
    4.195       51
    4.210       52
    4.225       53
    4.240       56
    4.255       55
    4.270       58
    4.285       47
    4.300       56
    4.315       60
    4.330       48
    4.345       45
    4.360       53
    4.375       55
    4.390       52
    4.405       57
    4.420       58
    4.435       50
    4.450       46
    4.465       53
    4.480       56
    4.495       44
    4.510       59
    4.525       57
    4.540       44
    4.555       49
    4.570       49
    4.585       48
    4.600       46
    4.615       50
    4.630       49
    4.645       45
    4.660       44
    4.675       50
    4.690       53
    4.705       41
    4.720       44
    4.735       49
    4.750       44
    4.765       49
    4.780       54
    4.795       53
    4.810       54
    4.825       48
    4.840       49
    4.855       36
    4.870       44
    4.885       51
    4.900       46
    4.915       51
    4.930       52
    4.945       64
    4.960       54
    4.975       57
    4.990       51
    5.005       51
    5.020       54
    5.035       50
    5.050       44
    5.065       49
    5.080       46
    5.095       50
    5.110       52
    5.125       52
    5.140       47
    5.155       50
    5.170       53
    5.185       52
    5.200       43
    5.215       61
    5.230       57
    5.245       52
    5.260       55
    5.275       51
    5.290       42
    5.305       41
    5.320       49
    5.335       53
    5.350       59
    5.365       43
    5.380       42
    5.395       51
    5.410       45
    5.425       48
    5.440       49
    5.455       50
    5.470       52
    5.485       47
    5.500       47
    5.515       52
    5.530       49
    5.545       44
    5.560       53
    5.575       40
    5.590       42
    5.605       47
    5.620       46
    5.635       48
    5.650       44
    5.665       46
    5.680       56
    5.695       60
    5.710       42
    5.725       59
    5.740       73
    5.755       52
    5.770       46
    5.785       49
    5.800       55
    5.815       47
    5.830       53
    5.845       44
    5.860       38
    5.875       42
    5.890       49
    5.905       46
    5.920       55
    5.935       51
    5.950       56
    5.965       40
    5.980       63
    5.995       54
    6.010       48
    6.025       58
    6.040       52
    6.055       45
    6.070       46
    6.085       55
    6.100       42
    6.115       51
    6.130       41
    6.145       45
    6.160       48
    6.175       42
    6.190       36
    6.205       45
    6.220       52
    6.235       58
    6.250       56
    6.265       60
    6.280       52
    6.295       66
    6.310       68
    6.325       65
    6.340       57
    6.355       65
    6.370       63
    6.385       85
    6.400       83
    6.415       77
    6.430       84
    6.445      100
    6.460       90
    6.475       90
    6.490       97
    6.505      118
    6.520      102
    6.535      115
    6.550      139
    6.565      178
    6.580      195
    6.595      204
    6.610      209
    6.625      197
    6.640      202
    6.655      219
    6.670      209
    6.685      145
    6.700      108
    6.715       62
    6.730       62
    6.745       56
    6.760       48
    6.775       48
    6.790       45
    6.805       52
    6.820       45
    6.835       49
    6.850       47
    6.865       37
    6.880       49
    6.895       55
    6.910       42
    6.925       55
    6.940       48
    6.955       58
    6.970       49
    6.985       47
    7.000       61
    7.015       60
    7.030       62
    7.045       58
    7.060       70
    7.075       61
    7.090       53
    7.105       63
    7.120       76
    7.135       82
    7.150       80
    7.165      106
    7.180      116
    7.195      103
    7.210       78
    7.225       69
    7.240       51
    7.255       51
    7.270       56
    7.285       66
    7.300       46
    7.315       43
    7.330       41
    7.345       40
    7.360       45
    7.375       50
    7.390       53
    7.405       53
    7.420       45
    7.435       42
    7.450       50
    7.465       54
    7.480       51
    7.495       51
    7.510       48
    7.525       46
    7.540       47
    7.555       45
    7.570       43
    7.585       41
    7.600       36
    7.615       42
    7.630       50
    7.645       41
    7.660       43
    7.675       45
    7.690       42
    7.705       56
    7.720       55
    7.735       48
    7.750       51
    7.765       43
    7.780       46
    7.795       39
    7.810       43
    7.825       42
    7.840       42
    7.855       45
    7.870       48
    7.885       44
    7.900       53
    7.915       53
    7.930       44
    7.945       50
    7.960       39
    7.975       41
    7.990       53
    8.005       38
    8.020       38
    8.035       47
    8.050       54
    8.065       56
    8.080       52
    8.095       53
    8.110       54
    8.125       56
    8.140       48
    8.155       48
    8.170       52
    8.185       47
    8.200       42
    8.215       41
    8.230       48
    8.245       43
    8.260       37
    8.275       43
    8.290       45
    8.305       39
    8.320       38
    8.335       47
    8.350       40
    8.365       38
    8.380       44
    8.395       49
    8.410       50
    8.425       55
    8.440       49
    8.455       45
    8.470       44
    8.485       43
    8.500       47
    8.515       54
    8.530       53
    8.545       52
    8.560       51
    8.575       48
    8.590       44
    8.605       40
    8.620       37
    8.635       42
    8.650       62
    8.665       50
    8.680       36
    8.695       42
    8.710       38
    8.725       40
    8.740       37
    8.755       42
    8.770       39
    8.785       51
    8.800       46
    8.815       63
    8.830       50
    8.845       51
    8.860       41
    8.875       37
    8.890       43
    8.905       40
    8.920       44
    8.935       40
    8.950       50
    8.965       45
    8.980       52
    8.995       47
    9.010       50
    9.025       61
    9.040       51
    9.055       43
    9.070       37
    9.085       43
    9.100       53
    9.115       49
    9.130       44
    9.145       37
    9.160       49
    9.175       43
    9.190       36
    9.205       51
    9.220       41
    9.235       53
    9.250       57
    9.265       39
    9.280       42
    9.295       57
    9.310       44
    9.325       37
    9.340       43
    9.355       50
    9.370       55
    9.385       54
    9.400       48
    9.415       52
    9.430       43
    9.445       45
    9.460       46
    9.475       48
    9.490       48
    9.505       46
    9.520       44
    9.535       47
    9.550       48
    9.565       52
    9.580       45
    9.595       40
    9.610       46
    9.625       50
    9.640       53
    9.655       52
    9.670       49
    9.685       42
    9.700       46
    9.715       46
    9.730       51
    9.745       39
    9.760       41
    9.775       53
    9.790       60
    9.805       63
    9.820       67
    9.835       58
    9.850       51
    9.865       45
    9.880       45
    9.895       60
    9.910       48
    9.925       51
    9.940       46
    9.955       41
    9.970       44
    9.985       50
   10.000       48
   10.015       40
   10.030       38
   10.045       47
   10.060       36
   10.075       43
   10.090       44
   10.105       44
   10.120       38
   10.135       51
   10.150       43
   10.165       41
   10.180       41
   10.195       49
   10.210       43
   10.225       42
   10.240       55
   10.255       51
   10.270       49
   10.285       47
   10.300       55
   10.315       54
   10.330       61
   10.345       57
   10.360       69
   10.375       73
   10.390       67
   10.405       78
   10.420       87
   10.435       89
   10.450      104
   10.465      111
   10.480      101
   10.495       68
   10.510       58
   10.525       58
   10.540       51
   10.555       46
   10.570       46
   10.585       52
   10.600       46
   10.615       55
   10.630       53
   10.645       57
   10.660       57
   10.675       56
   10.690       68
   10.705       75
   10.720       63
   10.735       71
   10.750       81
   10.765       79
   10.780       74
   10.795       85
   10.810       98
   10.825      113
   10.840      134
   10.855      156
   10.870      128
   10.885      104
   10.900       73
   10.915       50
   10.930       40
   10.945       44
   10.960       46
   10.975       52
   10.990       62
   11.005       59
   11.020       55
   11.035       59
   11.050       54
   11.065       58
   11.080       60
   11.095       58
   11.110       62
   11.125       69
   11.140       68
   11.155       77
   11.170       73
   11.185       76
   11.200       78
   11.215       92
   11.230       96
   11.245      113
   11.260       87
   11.275       59
   11.290       45
   11.305       39
   11.320       49
   11.335       53
   11.350       44
   11.365       42
   11.380       59
   11.395       55
   11.410       66
   11.425       82
   11.440       72
   11.455       63
   11.470       50
   11.485       53
   11.500       56
   11.515       46
   11.530       51
   11.545       40
   11.560       52
   11.575       39
   11.590       48
   11.605       40
   11.620       47
   11.635       41
   11.650       46
   11.665       50
   11.680       57
   11.695       51
   11.710       54
   11.725       55
   11.740       54
   11.755       47
   11.770       58
   11.785       45
   11.800       58
   11.815       53
   11.830       47
   11.845       54
   11.860       71
   11.875       71
   11.890       70
   11.905       55
   11.920       48
   11.935       48
   11.950       46
   11.965       45
   11.980       52
   11.995       48
   12.010       54
   12.025       58
   12.040       63
   12.055       66
   12.070       61
   12.085       54
   12.100       49
   12.115       50
   12.130       43
   12.145       48
   12.160       50
   12.175       48
   12.190       43
   12.205       47
   12.220       47
   12.235       42
   12.250       41
   12.265       56
   12.280       52
   12.295       47
   12.310       49
   12.325       45
   12.340       45
   12.355       49
   12.370       39
   12.385       45
   12.400       65
   12.415       55
   12.430       41
   12.445       51
   12.460       56
   12.475       76
   12.490       81
   12.505       82
   12.520       97
   12.535      112
   12.550      131
   12.565      145
   12.580      186
   12.595      199
   12.610      231
   12.625      299
   12.640      387
   12.655      441
   12.670      430
   12.685      393
   12.700      322
   12.715      269
   12.730      282
   12.745      318
   12.760      330
   12.775      268
   12.790      204
   12.805      141
   12.820       92
   12.835       61
   12.850       67
   12.865       46
   12.880       64
   12.895       65
   12.910       65
   12.925       76
   12.940       77
   12.955      100
   12.970      116
   12.985      110
   13.000      136
   13.015      155
   13.030      201
   13.045      256
   13.060      279
   13.075      254
   13.090      206
   13.105      160
   13.120      135
   13.135      160
   13.150      164
   13.165      222
   13.180      249
   13.195      330
   13.210      452
   13.225      594
   13.240      612
   13.255      546
   13.270      514
   13.285      503
   13.300      541
   13.315      640
   13.330      841
   13.345     1074
   13.360     1162
   13.375      958
   13.390      656
   13.405      383
   13.420      211
   13.435      142
   13.450      113
   13.465      115
   13.480      105
   13.495      134
   13.510      144
   13.525      158
   13.540      188
   13.555      231
   13.570      278
   13.585      309
   13.600      281
   13.615      295
   13.630      278
   13.645      232
   13.660      154
   13.675      103
   13.690       88
   13.705       66
   13.720       66
   13.735       86
   13.750       67
   13.765       66
   13.780       69
   13.795       72
   13.810       74
   13.825       86
   13.840       91
   13.855      107
   13.870      107
   13.885      102
   13.900       85
   13.915       64
   13.930       51
   13.945       51
   13.960       53
   13.975       55
   13.990       50
   14.005       58
   14.020       49
   14.035       45
   14.050       46
   14.065       53
   14.080       47
   14.095       47
   14.110       51
   14.125       56
   14.140       51
   14.155       47
   14.170       54
   14.185       59
   14.200       67
   14.215       73
   14.230       65
   14.245       81
   14.260       90
   14.275      101
   14.290      116
   14.305      148
   14.320      163
   14.335      144
   14.350      144
   14.365      124
   14.380      134
   14.395      167
   14.410      176
   14.425      181
   14.440      153
   14.455      168
   14.470      174
   14.485      193
   14.500      293
   14.515      318
   14.530      294
   14.545      255
   14.560      166
   14.575      117
   14.590       74
   14.605       66
   14.620       52
   14.635       52
   14.650       45
   14.665       48
   14.680       44
   14.695       44
   14.710       49
   14.725       59
   14.740       54
   14.755       47
   14.770       57
   14.785       47
   14.800       51
   14.815       62
   14.830       64
   14.845       49
   14.860       51
   14.875       56
   14.890       62
   14.905       61
   14.920       73
   14.935       99
   14.950      116
   14.965      138
   14.980      138
   14.995      193
   15.010      268
   15.025      301
   15.040      340
   15.055      356
   15.070      422
   15.085      486
   15.100      629
   15.115      757
   15.130      763
   15.145      593
   15.160      405
   15.175      235
   15.190      122
   15.205      123
   15.220      113
   15.235      104
   15.250      109
   15.265      124
   15.280      134
   15.295      160
   15.310      201
   15.325      218
   15.340      235
   15.355      235
   15.370      181
   15.385      170
   15.400      165
   15.415      152
   15.430      144
   15.445      130
   15.460      116
   15.475       96
   15.490       91
   15.505       86
   15.520      113
   15.535      115
   15.550      129
   15.565      170
   15.580      200
   15.595      250
   15.610      344
   15.625      353
   15.640      297
   15.655      224
   15.670      147
   15.685      109
   15.700      103
   15.715      123
   15.730      152
   15.745      122
   15.760      165
   15.775      186
   15.790      234
   15.805      281
   15.820      282
   15.835      213
   15.850      155
   15.865      137
   15.880       87
   15.895       79
   15.910       80
   15.925       72
   15.940       67
   15.955       59
   15.970       62
   15.985       73
   16.000       76
   16.015       93
   16.030       96
   16.045      108
   16.060      122
   16.075      142
   16.090      176
   16.105      237
   16.120      272
   16.135      313
   16.150      352
   16.165      333
   16.180      255
   16.195      189
   16.210      128
   16.225       89
   16.240       84
   16.255       86
   16.270      111
   16.285      119
   16.300      119
   16.315      146
   16.330      171
   16.345      189
   16.360      210
   16.375      201
   16.390      223
   16.405      239
   16.420      271
   16.435      367
   16.450      453
   16.465      467
   16.480      365
   16.495      269
   16.510      231
   16.525      187
   16.540      226
   16.555      255
   16.570      321
   16.585      353
   16.600      342
   16.615      305
   16.630      264
   16.645      193
   16.660      181
   16.675      200
   16.690      242
   16.705      285
   16.720      342
   16.735      367
   16.750      351
   16.765      289
   16.780      267
   16.795      286
   16.810      322
   16.825      305
   16.840      319
   16.855      300
   16.870      233
   16.885      164
   16.900      118
   16.915       97
   16.930       88
   16.945       84
   16.960       86
   16.975       82
   16.990       95
   17.005      123
   17.020      139
   17.035      171
   17.050      203
   17.065      200
   17.080      178
   17.095      136
   17.110      114
   17.125      122
   17.140      117
   17.155      115
   17.170      134
   17.185      177
   17.200      204
   17.215      227
   17.230      267
   17.245      308
   17.260      300
   17.275      290
   17.290      225
   17.305      177
   17.320      149
   17.335      126
   17.350      115
   17.365      134
   17.380      119
   17.395      113
   17.410       90
   17.425       96
   17.440      123
   17.455      159
   17.470      187
   17.485      226
   17.500      257
   17.515      236
   17.530      193
   17.545      121
   17.560       87
   17.575       70
   17.590       76
   17.605       85
   17.620       71
   17.635       86
   17.650       77
   17.665       97
   17.680      116
   17.695      127
   17.710      113
   17.725       99
   17.740      104
   17.755      121
   17.770      109
   17.785       92
   17.800       95
   17.815       94
   17.830       82
   17.845       69
   17.860       69
   17.875       80
   17.890       61
   17.905       71
   17.920       64
   17.935       58
   17.950       52
   17.965       53
   17.980       52
   17.995       49
   18.010       50
   18.025       51
   18.040       66
   18.055       63
   18.070       69
   18.085       62
   18.100       54
   18.115       47
   18.130       49
   18.145       47
   18.160       58
   18.175       66
   18.190       77
   18.205       68
   18.220       82
   18.235      119
   18.250      109
   18.265      106
   18.280      145
   18.295      147
   18.310      170
   18.325      176
   18.340      173
   18.355      143
   18.370      119
   18.385       77
   18.400       72
   18.415       65
   18.430       55
   18.445       50
   18.460       56
   18.475       57
   18.490       80
   18.505       89
   18.520       92
   18.535       95
   18.550      107
   18.565      138
   18.580      149
   18.595      166
   18.610      169
   18.625      154
   18.640      139
   18.655      148
   18.670      159
   18.685      170
   18.700      176
   18.715      185
   18.730      166
   18.745      148
   18.760      122
   18.775      101
   18.790       96
   18.805       94
   18.820       77
   18.835       74
   18.850       85
   18.865       93
   18.880       88
   18.895      101
   18.910      120
   18.925      139
   18.940      147
   18.955      138
   18.970      112
   18.985      116
   19.000      112
   19.015       97
   19.030       87
   19.045       89
   19.060       64
   19.075       56
   19.090       52
   19.105       61
   19.120       57
   19.135       65
   19.150       47
   19.165       50
   19.180       44
   19.195       52
   19.210       54
   19.225       50
   19.240       56
   19.255       47
   19.270       48
   19.285       41
   19.300       52
   19.315       57
   19.330       55
   19.345       49
   19.360       52
   19.375       48
   19.390       50
   19.405       48
   19.420       56
   19.435       54
   19.450       54
   19.465       57
   19.480       59
   19.495       52
   19.510       62
   19.525       55
   19.540       58
   19.555       64
   19.570       89
   19.585      108
   19.600      129
   19.615      146
   19.630      149
   19.645      166
   19.660      152
   19.675      136
   19.690      115
   19.705       94
   19.720       91
   19.735       87
   19.750       72
   19.765       70
   19.780       86
   19.795       86
   19.810      105
   19.825      127
   19.840      159
   19.855      189
   19.870      215
   19.885      322
   19.900      410
   19.915      445
   19.930      424
   19.945      318
   19.960      287
   19.975      206
   19.990      158
   20.005      162
   20.020      181
   20.035      218
   20.050      236
   20.065      266
   20.080      234
   20.095      214
   20.110      171
   20.125      127
   20.140      113
   20.155       85
   20.170       70
   20.185       70
   20.200       72
   20.215       79
   20.230       85
   20.245      100
   20.260      117
   20.275      107
   20.290      100
   20.305       90
   20.320       71
   20.335       71
   20.350       57
   20.365       51
   20.380       50
   20.395       55
   20.410       47
   20.425       55
   20.440       61
   20.455       53
   20.470       46
   20.485       51
   20.500       53
   20.515       52
   20.530       47
   20.545       60
   20.560       70
   20.575       72
   20.590       88
   20.605       84
   20.620       91
   20.635       90
   20.650       78
   20.665       66
   20.680       56
   20.695       55
   20.710       65
   20.725       61
   20.740       92
   20.755      102
   20.770      103
   20.785      132
   20.800      173
   20.815      177
   20.830      176
   20.845      159
   20.860      165
   20.875      183
   20.890      202
   20.905      196
   20.920      163
   20.935      133
   20.950       93
   20.965       75
   20.980       76
   20.995       73
   21.010       75
   21.025       63
   21.040       73
   21.055       67
   21.070       47
   21.085       64
   21.100       53
   21.115       68
   21.130       64
   21.145       70
   21.160       73
   21.175       62
   21.190       60
   21.205       69
   21.220       65
   21.235       73
   21.250       82
   21.265       92
   21.280       83
   21.295       92
   21.310       69
   21.325       64
   21.340       69
   21.355       52
   21.370       51
   21.385       59
   21.400       47
   21.415       56
   21.430       57
   21.445       61
   21.460       53
   21.475       65
   21.490       62
   21.505       62
   21.520       71
   21.535       83
   21.550      100
   21.565      136
   21.580      144
   21.595      176
   21.610      214
   21.625      227
   21.640      207
   21.655      151
   21.670      133
   21.685      143
   21.700      137
   21.715      140
   21.730      151
   21.745      223
   21.760      230
   21.775      316
   21.790      441
   21.805      537
   21.820      531
   21.835      513
   21.850      408
   21.865      288
   21.880      171
   21.895      155
   21.910      157
   21.925      127
   21.940      140
   21.955      127
   21.970      106
   21.985       87
   22.000       69
   22.015       67
   22.030       63
   22.045       50
   22.060       54
   22.075       57
   22.090       61
   22.105       61
   22.120       62
   22.135       60
   22.150       58
   22.165       65
   22.180       70
   22.195       53
   22.210       59
   22.225       74
   22.240       61
   22.255       60
   22.270       86
   22.285       95
   22.300       92
   22.315       91
   22.330       92
   22.345       90
   22.360       80
   22.375       91
   22.390      108
   22.405      116
   22.420      126
   22.435      117
   22.450      115
   22.465       89
   22.480       85
   22.495       76
   22.510       69
   22.525       74
   22.540       95
   22.555       93
   22.570      100
   22.585      116
   22.600      153
   22.615      188
   22.630      219
   22.645      191
   22.660      178
   22.675      145
   22.690      101
   22.705       80
   22.720       97
   22.735      107
   22.750       96
   22.765      121
   22.780      139
   22.795      155
   22.810      170
   22.825      196
   22.840      222
   22.855      221
   22.870      219
   22.885      193
   22.900      183
   22.915      169
   22.930      154
   22.945      133
   22.960      114
   22.975       86
   22.990       86
   23.005       81
   23.020       81
   23.035       80
   23.050       79
   23.065       91
   23.080      105
   23.095       98
   23.110       99
   23.125       96
   23.140       73
   23.155       70
   23.170       96
   23.185      108
   23.200      111
   23.215      128
   23.230      140
   23.245      118
   23.260      100
   23.275       93
   23.290       75
   23.305       59
   23.320       61
   23.335       64
   23.350       56
   23.365       65
   23.380       68
   23.395       65
   23.410       68
   23.425       76
   23.440       71
   23.455       68
   23.470       69
   23.485       54
   23.500       61
   23.515       54
   23.530       56
   23.545       53
   23.560       42
   23.575       59
   23.590       50
   23.605       50
   23.620       54
   23.635       60
   23.650       59
   23.665       55
   23.680       54
   23.695       45
   23.710       51
   23.725       47
   23.740       43
   23.755       53
   23.770       55
   23.785       54
   23.800       58
   23.815       59
   23.830       68
   23.845       65
   23.860       65
   23.875       87
   23.890       93
   23.905       77
   23.920       56
   23.935       70
   23.950       66
   23.965       76
   23.980       86
   23.995      103
   24.010      126
   24.025      124
   24.040      129
   24.055       97
   24.070       86
   24.085       76
   24.100       68
   24.115       58
   24.130       50
   24.145       47
   24.160       60
   24.175       61
   24.190       59
   24.205       52
   24.220       84
   24.235      107
   24.250      108
   24.265      120
   24.280      116
   24.295      117
   24.310       68
   24.325       77
   24.340       65
   24.355       68
   24.370       67
   24.385       59
   24.400       64
   24.415       66
   24.430       56
   24.445       60
   24.460       73
   24.475       76
   24.490       73
   24.505       68
   24.520       81
   24.535       81
   24.550       78
   24.565       72
   24.580       84
   24.595       86
   24.610       88
   24.625       95
   24.640       80
   24.655       88
   24.670       80
   24.685       84
   24.700       73
   24.715       69
   24.730       58
   24.745       83
   24.760       74
   24.775       83
   24.790       78
   24.805       72
   24.820       49
   24.835       46
   24.850       52
   24.865       50
   24.880       49
   24.895       66
   24.910       79
   24.925       69
   24.940       84
   24.955       95
   24.970      121
   24.985      117
   25.000      125
   25.015      128
   25.030      108
   25.045      101
   25.060       84
   25.075       77
   25.090       76
   25.105       75
   25.120       76
   25.135       79
   25.150       87
   25.165       84
   25.180      112
   25.195      109
   25.210       98
   25.225       94
   25.240       79
   25.255       74
   25.270       76
   25.285       77
   25.300       58
   25.315       56
   25.330       69
   25.345       62
   25.360       72
   25.375       83
   25.390       72
   25.405       80
   25.420      117
   25.435      111
   25.450      113
   25.465      105
   25.480       93
   25.495       89
   25.510       90
   25.525       68
   25.540       68
   25.555       63
   25.570       77
   25.585       84
   25.600       87
   25.615      109
   25.630      120
   25.645      168
   25.660      217
   25.675      244
   25.690      210
   25.705      206
   25.720      180
   25.735      152
   25.750      123
   25.765      116
   25.780       91
   25.795       87
   25.810       87
   25.825      109
   25.840      114
   25.855      121
   25.870      115
   25.885      139
   25.900      157
   25.915      153
   25.930      126
   25.945      102
   25.960       80
   25.975       67
   25.990       73
   26.005       73
   26.020       77
   26.035       61
   26.050       90
   26.065       89
   26.080      105
   26.095      104
   26.110      102
   26.125      107
   26.140      125
   26.155      118
   26.170      120
   26.185      110
   26.200       90
   26.215       79
   26.230       63
   26.245       72
   26.260       77
   26.275       67
   26.290       74
   26.305       74
   26.320       59
   26.335       63
   26.350       65
   26.365       76
   26.380       79
   26.395       91
   26.410       75
   26.425       68
   26.440       62
   26.455       61
   26.470       62
   26.485       52
   26.500       51
   26.515       53
   26.530       56
   26.545       58
   26.560       70
   26.575       65
   26.590       76
   26.605       71
   26.620       87
   26.635      100
   26.650      111
   26.665      106
   26.680       94
   26.695       85
   26.710       76
   26.725       71
   26.740       66
   26.755       66
   26.770       61
   26.785       64
   26.800       67
   26.815       86
   26.830       77
   26.845       84
   26.860      112
   26.875      115
   26.890      149
   26.905      149
   26.920      160
   26.935      187
   26.950      154
   26.965      171
   26.980      157
   26.995      187
   27.010      170
   27.025      130
   27.040      126
   27.055      117
   27.070       88
   27.085       69
   27.100       76
   27.115       66
   27.130       61
   27.145       54
   27.160       58
   27.175       66
   27.190       75
   27.205       72
   27.220       82
   27.235       69
   27.250       75
   27.265       89
   27.280       76
   27.295       69
   27.310       76
   27.325       85
   27.340       70
   27.355       88
   27.370       80
   27.385       81
   27.400       88
   27.415       72
   27.430       79
   27.445       75
   27.460      107
   27.475      117
   27.490      123
   27.505      146
   27.520      137
   27.535      157
   27.550      153
   27.565      154
   27.580      171
   27.595      163
   27.610      158
   27.625      178
   27.640      160
   27.655      158
   27.670      133
   27.685      141
   27.700      137
   27.715      125
   27.730      120
   27.745      107
   27.760       96
   27.775       84
   27.790      103
   27.805       79
   27.820       91
   27.835       94
   27.850      112
   27.865      126
   27.880      122
   27.895      108
   27.910      116
   27.925      107
   27.940      100
   27.955       99
   27.970       90
   27.985       75
   28.000       74
   28.015       68
   28.030       71
   28.045       69
   28.060       67
   28.075       72
   28.090       77
   28.105       70
   28.120       78
   28.135       84
   28.150       95
   28.165       72
   28.180       70
   28.195       76
   28.210       79
   28.225       84
   28.240       84
   28.255       91
   28.270       97
   28.285       84
   28.300       82
   28.315       92
   28.330       87
   28.345      107
   28.360      104
   28.375       88
   28.390       85
   28.405      101
   28.420      105
   28.435      103
   28.450       94
   28.465       74
   28.480       58
   28.495       49
   28.510       55
   28.525       66
   28.540       62
   28.555       68
   28.570       59
   28.585       60
   28.600       56
   28.615       57
   28.630       59
   28.645       68
   28.660       80
   28.675       80
   28.690       79
   28.705      100
   28.720       95
   28.735       94
   28.750       83
   28.765       79
   28.780       77
   28.795       77
   28.810       77
   28.825       78
   28.840       85
   28.855       90
   28.870       87
   28.885       90
   28.900       92
   28.915       91
   28.930      103
   28.945      108
   28.960       97
   28.975      101
   28.990      102
   29.005      101
   29.020       88
   29.035       92
   29.050      103
   29.065      106
   29.080       93
   29.095       91
   29.110       99
   29.125       92
   29.140       86
   29.155       82
   29.170       80
   29.185       81
   29.200       80
   29.215       85
   29.230       86
   29.245       73
   29.260       84
   29.275       77
   29.290       85
   29.305       81
   29.320       71
   29.335       71
   29.350       70
   29.365       74
   29.380       65
   29.395       53
   29.410       61
   29.425       64
   29.440       68
   29.455       57
   29.470       65
   29.485       71
   29.500       91
   29.515      101
   29.530      102
   29.545       85
   29.560       80
   29.575       98
   29.590       91
   29.605       80
   29.620       83
   29.635      106
   29.650      117
   29.665      115
   29.680      141
   29.695      152
   29.710      129
   29.725      119
   29.740      110
   29.755      116
   29.770      106
   29.785       81
   29.800       90
   29.815       87
   29.830       75
   29.845       76
   29.860       73
   29.875       69
   29.890       71
   29.905       79
   29.920       87
   29.935       71
   29.950       58
   29.965       61
   29.980       56
   29.995       61
   30.010       63
   30.025       50
   30.040       62
   30.055       62
   30.070       57
   30.085       58
   30.100       68
   30.115       61
   30.130       58
   30.145       56
   30.160       57
   30.175       56
   30.190       48
   30.205       47
   30.220       63
   30.235       65
   30.250       75
   30.265       75
   30.280       65
   30.295       66
   30.310       75
   30.325       72
   30.340       76
   30.355       77
   30.370       63
   30.385       79
   30.400       59
   30.415       50
   30.430       61
   30.445       59
   30.460       69
   30.475       76
   30.490       72
   30.505       74
   30.520       70
   30.535       71
   30.550       88
   30.565       94
   30.580       93
   30.595      102
   30.610      106
   30.625      116
   30.640      100
   30.655      101
   30.670      101
   30.685      109
   30.700       85
   30.715       73
   30.730       77
   30.745       59
   30.760       60
   30.775       58
   30.790       59
   30.805       53
   30.820       58
   30.835       55
   30.850       77
   30.865       67
   30.880       67
   30.895       74
   30.910       72
   30.925       92
   30.940       85
   30.955      103
   30.970       99
   30.985      112
   31.000      107
   31.015      108
   31.030      102
   31.045      106
   31.060       78
   31.075       78
   31.090       71
   31.105       76
   31.120       79
   31.135       73
   31.150       77
   31.165       76
   31.180       66
   31.195       72
   31.210       68
   31.225       83
   31.240       87
   31.255       67
   31.270       76
   31.285       78
   31.300       75
   31.315       71
   31.330       74
   31.345       72
   31.360       72
   31.375       84
   31.390       91
   31.405       83
   31.420       87
   31.435       83
   31.450       78
   31.465       71
   31.480       71
   31.495       67
   31.510       66
   31.525       88
   31.540       94
   31.555      100
   31.570      117
   31.585      109
   31.600      103
   31.615      100
   31.630      100
   31.645       95
   31.660       90
   31.675       92
   31.690       99
   31.705       94
   31.720       90
   31.735       95
   31.750       97
   31.765      107
   31.780      109
   31.795      103
   31.810      108
   31.825       92
   31.840       96
   31.855      105
   31.870      104
   31.885      101
   31.900      117
   31.915      109
   31.930      107
   31.945       90
   31.960       89
   31.975       90
   31.990       77
   32.005       70
   32.020       72
   32.035       96
   32.050       72
   32.065       74
   32.080       73
   32.095       76
   32.110       85
   32.125       88
   32.140       81
   32.155       86
   32.170       92
   32.185       82
   32.200       72
   32.215       66
   32.230       61
   32.245       65
   32.260       68
   32.275       65
   32.290       64
   32.305       58
   32.320       53
   32.335       55
   32.350       66
   32.365       80
   32.380       77
   32.395       62
   32.410       75
   32.425       78
   32.440       72
   32.455       69
   32.470       59
   32.485       58
   32.500       56
   32.515       58
   32.530       52
   32.545       50
   32.560       54
   32.575       64
   32.590       51
   32.605       66
   32.620       62
   32.635       71
   32.650       66
   32.665       61
   32.680       61
   32.695       77
   32.710       73
   32.725       68
   32.740       61
   32.755       62
   32.770       61
   32.785       53
   32.800       58
   32.815       63
   32.830       69
   32.845       72
   32.860       67
   32.875       82
   32.890       79
   32.905       87
   32.920       79
   32.935       90
   32.950      100
   32.965       95
   32.980       93
   32.995      103
   33.010      106
   33.025      100
   33.040       82
   33.055       81
   33.070       82
   33.085       73
   33.100       67
   33.115       61
   33.130       68
   33.145       75
   33.160       78
   33.175       74
   33.190       89
   33.205       94
   33.220       74
   33.235       72
   33.250       76
   33.265       76
   33.280       78
   33.295       65
   33.310       59
   33.325       61
   33.340       72
   33.355       81
   33.370       89
   33.385       89
   33.400       83
   33.415       76
   33.430       80
   33.445       90
   33.460       97
   33.475      113
   33.490      118
   33.505      118
   33.520      110
   33.535      100
   33.550       98
   33.565       96
   33.580      103
   33.595      107
   33.610      108
   33.625      106
   33.640       93
   33.655       92
   33.670       90
   33.685       71
   33.700       69
   33.715       82
   33.730       93
   33.745       94
   33.760       92
   33.775       85
   33.790      101
   33.805      116
   33.820      129
   33.835      119
   33.850      137
   33.865      112
   33.880       99
   33.895       95
   33.910       98
   33.925       70
   33.940       60
   33.955       76
   33.970       89
   33.985      100
   34.000       87
   34.015      106
   34.030       89
   34.045       87
   34.060       84
   34.075       78
   34.090       90
   34.105       83
   34.120       76
   34.135       86
   34.150       73
   34.165       65
   34.180       61
   34.195       75
   34.210       68
   34.225       66
   34.240       58
   34.255       60
   34.270       62
   34.285       61
   34.300       61
   34.315       60
   34.330       57
   34.345       57
   34.360       57
   34.375       74
   34.390       64
   34.405       72
   34.420       75
   34.435       67
   34.450       74
   34.465       83
   34.480       85
   34.495       86
   34.510       84
   34.525       74
   34.540       79
   34.555       74
   34.570       71
   34.585       80
   34.600       77
   34.615       74
   34.630       57
   34.645       64
   34.660       61
   34.675       49
   34.690       65
   34.705       63
   34.720       66
   34.735       60
   34.750       75
   34.765       78
   34.780       69
   34.795       63
   34.810       57
   34.825       47
   34.840       67
   34.855       63
   34.870       68
   34.885       76
   34.900       59
   34.915       64
   34.930       68
   34.945       71
   34.960       56
   34.975       64
   34.990       71
   35.005       84
   35.020       77
   35.035       76
   35.050       77
   35.065       96
   35.080       91
   35.095       84
   35.110       79
   35.125       78
   35.140       77
   35.155       75
   35.170       74
   35.185       71
   35.200       81
   35.215       81
   35.230       80
   35.245       84
   35.260       96
   35.275       90
   35.290       89
   35.305      103
   35.320      110
   35.335      116
   35.350      101
   35.365      107
   35.380      100
   35.395      108
   35.410      125
   35.425      111
   35.440      124
   35.455      144
   35.470      130
   35.485      126
   35.500      105
   35.515       97
   35.530       93
   35.545       88
   35.560      104
   35.575      112
   35.590      116
   35.605      125
   35.620      115
   35.635      110
   35.650      104
   35.665       90
   35.680       94
   35.695       85
   35.710       89
   35.725       78
   35.740       75
   35.755       76
   35.770       63
   35.785       81
   35.800       67
   35.815       72
   35.830       67
   35.845       52
   35.860       64
   35.875       58
   35.890       63
   35.905       52
   35.920       59
   35.935       47
   35.950       49
   35.965       60
   35.980       60
   35.995       58
   36.010       58
   36.025       66
   36.040       59
   36.055       65
   36.070       46
   36.085       67
   36.100       56
   36.115       66
   36.130       67
   36.145       51
   36.160       66
   36.175       67
   36.190       62
   36.205       63
   36.220       65
   36.235       74
   36.250       77
   36.265       73
   36.280       90
   36.295       87
   36.310       76
   36.325       76
   36.340       62
   36.355       60
   36.370       61
   36.385       58
   36.400       63
   36.415       60
   36.430       56
   36.445       62
   36.460       68
   36.475       65
   36.490       54
   36.505       68
   36.520       74
   36.535       67
   36.550       70
   36.565       69
   36.580       76
   36.595       63
   36.610       67
   36.625       67
   36.640       51
   36.655       58
   36.670       69
   36.685       66
   36.700       68
   36.715       65
   36.730       75
   36.745       82
   36.760       82
   36.775       82
   36.790       87
   36.805       75
   36.820       74
   36.835       77
   36.850       68
   36.865       79
   36.880       75
   36.895       75
   36.910       63
   36.925       61
   36.940       63
   36.955       69
   36.970       70
   36.985       64
   37.000       60
   37.015       66
   37.030       76
   37.045       68
   37.060       68
   37.075       79
   37.090       81
   37.105       80
   37.120       87
   37.135       85
   37.150       80
   37.165       73
   37.180       70
   37.195       66
   37.210       61
   37.225       75
   37.240       60
   37.255       84
   37.270       75
   37.285       75
   37.300       85
   37.315       85
   37.330       87
   37.345       73
   37.360       63
   37.375       62
   37.390       66
   37.405       55
   37.420       69
   37.435       76
   37.450       67
   37.465       62
   37.480       68
   37.495       63
   37.510       59
   37.525       63
   37.540       53
   37.555       63
   37.570       65
   37.585       67
   37.600       62
   37.615       59
   37.630       60
   37.645       56
   37.660       53
   37.675       61
   37.690       74
   37.705       76
   37.720       77
   37.735       68
   37.750       54
   37.765       63
   37.780       71
   37.795       66
   37.810       58
   37.825       63
   37.840       56
   37.855       74
   37.870       62
   37.885       57
   37.900       69
   37.915       65
   37.930       57
   37.945       64
   37.960       69
   37.975       75
   37.990       78
   38.005       77
   38.020       77
   38.035       71
   38.050       74
   38.065       74
   38.080       83
   38.095       59
   38.110       67
   38.125       57
   38.140       60
   38.155       65
   38.170       62
   38.185       60
   38.200       65
   38.215       74
   38.230       77
   38.245       77
   38.260       76
   38.275       67
   38.290       59
   38.305       71
   38.320       69
   38.335       69
   38.350       76
   38.365       82
   38.380       95
   38.395       96
   38.410       96
   38.425       94
   38.440      104
   38.455       82
   38.470       77
   38.485       76
   38.500       68
   38.515       62
   38.530       68
   38.545       74
   38.560       71
   38.575       75
   38.590       71
   38.605       67
   38.620       66
   38.635       73
   38.650       72
   38.665       80
   38.680       68
   38.695       70
   38.710       78
   38.725       71
   38.740       65
   38.755       68
   38.770       63
   38.785       63
   38.800       60
   38.815       50
   38.830       68
   38.845       66
   38.860       74
   38.875       68
   38.890       85
   38.905       68
   38.920       66
   38.935       62
   38.950       73
   38.965       85
   38.980       75
   38.995       85
   39.010       61
   39.025       68
   39.040       61
   39.055       70
   39.070       69
   39.085       60
   39.100       65
   39.115       53
   39.130       50
   39.145       48
   39.160       57
   39.175       55
   39.190       69
   39.205       60
   39.220       64
   39.235       69
   39.250       62
   39.265       53
   39.280       59
   39.295       61
   39.310       63
   39.325       61
   39.340       73
   39.355       66
   39.370       48
   39.385       59
   39.400       56
   39.415       56
   39.430       58
   39.445       39
   39.460       54
   39.475       57
   39.490       54
   39.505       58
   39.520       54
   39.535       54
   39.550       57
   39.565       50
   39.580       64
   39.595       61
   39.610       55
   39.625       65
   39.640       56
   39.655       53
   39.670       65
   39.685       69
   39.700       63
   39.715       57
   39.730       72
   39.745       62
   39.760       67
   39.775       69
   39.790       72
   39.805       70
   39.820       77
   39.835       73
   39.850       67
   39.865       63
   39.880       63
   39.895       73
   39.910       82
   39.925       62
   39.940       71
   39.955       61
   39.970       55
   39.985       61
   40.000       69
   40.015       71
   40.030       62
   40.045       55
   40.060       56
   40.075       57
   40.090       58
   40.105       57
   40.120       68
   40.135       62
   40.150       55
   40.165       60
   40.180       59
   40.195       65
   40.210       59
   40.225       48
   40.240       58
   40.255       55
   40.270       55
   40.285       46
   40.300       61
   40.315       55
   40.330       63
   40.345       75
   40.360       77
   40.375       74
   40.390       73
   40.405       65
   40.420       68
   40.435       74
   40.450       65
   40.465       77
   40.480       73
   40.495       69
   40.510       73
   40.525       85
   40.540       73
   40.555       68
   40.570       54
   40.585       62
   40.600       79
   40.615       62
   40.630       63
   40.645       80
   40.660       64
   40.675       63
   40.690       63
   40.705       66
   40.720       63
   40.735       74
   40.750       70
   40.765       76
   40.780       80
   40.795       77
   40.810       81
   40.825       87
   40.840       75
   40.855       73
   40.870       72
   40.885       75
   40.900       69
   40.915       61
   40.930       74
   40.945       62
   40.960       68
   40.975       73
   40.990       62
   41.005       53
   41.020       46
   41.035       57
   41.050       64
   41.065       69
   41.080       60
   41.095       57
   41.110       56
   41.125       61
   41.140       65
   41.155       54
   41.170       50
   41.185       65
   41.200       59
   41.215       48
   41.230       51
   41.245       60
   41.260       64
   41.275       55
   41.290       54
   41.305       53
   41.320       62
   41.335       58
   41.350       52
   41.365       54
   41.380       56
   41.395       60
   41.410       59
   41.425       55
   41.440       59
   41.455       62
   41.470       61
   41.485       72
   41.500       62
   41.515       57
   41.530       56
   41.545       58
   41.560       65
   41.575       62
   41.590       63
   41.605       64
   41.620       59
   41.635       50
   41.650       58
   41.665       67
   41.680       73
   41.695       71
   41.710       56
   41.725       66
   41.740       62
   41.755       65
   41.770       64
   41.785       74
   41.800       63
   41.815       62
   41.830       64
   41.845       76
   41.860       60
   41.875       73
   41.890       57
   41.905       66
   41.920       64
   41.935       61
   41.950       57
   41.965       71
   41.980       64
   41.995       55
   42.010       56
   42.025       62
   42.040       62
   42.055       68
   42.070       67
   42.085       69
   42.100       56
   42.115       53
   42.130       64
   42.145       64
   42.160       72
   42.175       66
   42.190       55
   42.205       54
   42.220       48
   42.235       51
   42.250       51
   42.265       58
   42.280       57
   42.295       66
   42.310       59
   42.325       62
   42.340       68
   42.355       85
   42.370       80
   42.385       67
   42.400       61
   42.415       70
   42.430       58
   42.445       59
   42.460       59
   42.475       67
   42.490       68
   42.505       62
   42.520       56
   42.535       58
   42.550       54
   42.565       64
   42.580       51
   42.595       51
   42.610       53
   42.625       53
   42.640       66
   42.655       51
   42.670       52
   42.685       67
   42.700       50
   42.715       49
   42.730       51
   42.745       52
   42.760       54
   42.775       52
   42.790       53
   42.805       71
   42.820       67
   42.835       59
   42.850       52
   42.865       62
   42.880       53
   42.895       52
   42.910       47
   42.925       49
   42.940       60
   42.955       58
   42.970       55
   42.985       53
   43.000       54
   43.015       55
   43.030       66
   43.045       78
   43.060       46
   43.075       56
   43.090       67
   43.105       68
   43.120       62
   43.135       60
   43.150       68
   43.165       64
   43.180       58
   43.195       52
   43.210       65
   43.225       53
   43.240       58
   43.255       57
   43.270       55
   43.285       67
   43.300       65
   43.315       54
   43.330       66
   43.345       59
   43.360       50
   43.375       42
   43.390       58
   43.405       53
   43.420       60
   43.435       57
   43.450       60
   43.465       52
   43.480       57
   43.495       60
   43.510       62
   43.525       65
   43.540       50
   43.555       51
   43.570       57
   43.585       56
   43.600       58
   43.615       48
   43.630       61
   43.645       59
   43.660       68
   43.675       62
   43.690       64
   43.705       62
   43.720       66
   43.735       52
   43.750       55
   43.765       66
   43.780       52
   43.795       65
   43.810       53
   43.825       54
   43.840       65
   43.855       59
   43.870       51
   43.885       45
   43.900       56
   43.915       57
   43.930       60
   43.945       55
   43.960       59
   43.975       59
   43.990       66
   44.005       58
   44.020       56
   44.035       54
   44.050       62
   44.065       65
   44.080       61
   44.095       56
   44.110       49
   44.125       57
   44.140       56
   44.155       60
   44.170       58
   44.185       67
   44.200       84
   44.215       76
   44.230       61
   44.245       66
   44.260       61
   44.275       62
   44.290       77
   44.305       66
   44.320       53
   44.335       57
   44.350       50
   44.365       66
   44.380       68
   44.395       61
   44.410       50
   44.425       53
   44.440       50
   44.455       54
   44.470       69
   44.485       62
   44.500       52
   44.515       54
   44.530       66
   44.545       68
   44.560       61
   44.575       56
   44.590       54
   44.605       57
   44.620       57
   44.635       54
   44.650       57
   44.665       64
   44.680       60
   44.695       61
   44.710       70
   44.725       55
   44.740       73
   44.755       81
   44.770       76
   44.785       77
   44.800       66
   44.815       66
   44.830       66
   44.845       65
   44.860       63
   44.875       63
   44.890       63
   44.905       53
   44.920       57
   44.935       54
   44.950       67
   44.965       55
   44.980       61
   44.995       67
   45.010       62
   45.025       68
   45.040       80
   45.055       80
   45.070       70
   45.085       71
   45.100       77
   45.115       71
   45.130       82
   45.145       76
   45.160       74
   45.175       78
   45.190       75
   45.205       83
   45.220       75
   45.235       65
   45.250       67
   45.265       60
   45.280       65
   45.295       68
   45.310       68
   45.325       55
   45.340       63
   45.355       67
   45.370       60
   45.385       63
   45.400       67
   45.415       57
   45.430       55
   45.445       68
   45.460       79
   45.475       62
   45.490       71
   45.505       80
   45.520       67
   45.535       64
   45.550       65
   45.565       65
   45.580       64
   45.595       66
   45.610       58
   45.625       66
   45.640       65
   45.655       63
   45.670       67
   45.685       64
   45.700       57
   45.715       56
   45.730       56
   45.745       61
   45.760       67
   45.775       65
   45.790       58
   45.805       55
   45.820       53
   45.835       51
   45.850       49
   45.865       42
   45.880       59
   45.895       59
   45.910       50
   45.925       53
   45.940       50
   45.955       56
   45.970       54
   45.985       64
