    4.000       53
    4.015       57
    4.030       53
    4.045       50
    4.060       51
    4.075       54
    4.090       48
    4.105       54
    4.120       58
    4.135       52
    4.150       51
    4.165       50
    4.180       59
    4.195       54
    4.210       57
    4.225       53
    4.240       56
    4.255       51
    4.270       34
    4.285       43
    4.300       57
    4.315       64
    4.330       45
    4.345       59
    4.360       59
    4.375       50
    4.390       42
    4.405       49
    4.420       51
    4.435       50
    4.450       41
    4.465       52
    4.480       52
    4.495       51
    4.510       46
    4.525       45
    4.540       45
    4.555       63
    4.570       55
    4.585       44
    4.600       54
    4.615       54
    4.630       54
    4.645       51
    4.660       56
    4.675       52
    4.690       45
    4.705       50
    4.720       45
    4.735       51
    4.750       49
    4.765       47
    4.780       43
    4.795       46
    4.810       40
    4.825       48
    4.840       50
    4.855       51
    4.870       62
    4.885       63
    4.900       55
    4.915       58
    4.930       46
    4.945       44
    4.960       43
    4.975       49
    4.990       44
    5.005       49
    5.020       55
    5.035       46
    5.050       44
    5.065       44
    5.080       43
    5.095       47
    5.110       47
    5.125       47
    5.140       54
    5.155       48
    5.170       45
    5.185       43
    5.200       49
    5.215       49
    5.230       45
    5.245       42
    5.260       40
    5.275       48
    5.290       53
    5.305       46
    5.320       54
    5.335       56
    5.350       50
    5.365       51
    5.380       62
    5.395       57
    5.410       46
    5.425       52
    5.440       48
    5.455       47
    5.470       41
    5.485       48
    5.500       44
    5.515       44
    5.530       53
    5.545       60
    5.560       55
    5.575       45
    5.590       44
    5.605       47
    5.620       62
    5.635       46
    5.650       52
    5.665       53
    5.680       47
    5.695       50
    5.710       57
    5.725       54
    5.740       45
    5.755       41
    5.770       48
    5.785       60
    5.800       46
    5.815       37
    5.830       43
    5.845       50
    5.860       48
    5.875       49
    5.890       46
    5.905       54
    5.920       47
    5.935       50
    5.950       58
    5.965       43
    5.980       46
    5.995       43
    6.010       47
    6.025       52
    6.040       47
    6.055       62
    6.070       60
    6.085       56
    6.100       46
    6.115       41
    6.130       51
    6.145       50
    6.160       46
    6.175       45
    6.190       50
    6.205       44
    6.220       57
    6.235       57
    6.250       60
    6.265       57
    6.280       55
    6.295       73
    6.310       71
    6.325       62
    6.340       66
    6.355       65
    6.370       79
    6.385       82
    6.400       70
    6.415       66
    6.430       82
    6.445       93
    6.460       78
    6.475       81
    6.490       88
    6.505      117
    6.520      112
    6.535      116
    6.550      138
    6.565      149
    6.580      163
    6.595      216
    6.610      220
    6.625      220
    6.640      222
    6.655      222
    6.670      222
    6.685      176
    6.700      113
    6.715       77
    6.730       58
    6.745       65
    6.760       43
    6.775       46
    6.790       53
    6.805       52
    6.820       60
    6.835       51
    6.850       44
    6.865       53
    6.880       48
    6.895       58
    6.910       49
    6.925       52
    6.940       59
    6.955       51
    6.970       58
    6.985       54
    7.000       48
    7.015       56
    7.030       54
    7.045       57
    7.060       54
    7.075       73
    7.090       72
    7.105       67
    7.120       73
    7.135       73
    7.150       84
    7.165       93
    7.180      121
    7.195      128
    7.210      104
    7.225       62
    7.240       45
    7.255       46
    7.270       44
    7.285       50
    7.300       39
    7.315       42
    7.330       39
    7.345       52
    7.360       45
    7.375       47
    7.390       38
    7.405       48
    7.420       48
    7.435       37
    7.450       30
    7.465       45
    7.480       43
    7.495       40
    7.510       46
    7.525       44
    7.540       53
    7.555       48
    7.570       40
    7.585       51
    7.600       44
    7.615       53
    7.630       55
    7.645       60
    7.660       55
    7.675       46
    7.690       51
    7.705       57
    7.720       50
    7.735       44
    7.750       42
    7.765       41
    7.780       50
    7.795       49
    7.810       53
    7.825       45
    7.840       45
    7.855       45
    7.870       48
    7.885       48
    7.900       43
    7.915       38
    7.930       36
    7.945       41
    7.960       44
    7.975       48
    7.990       52
    8.005       44
    8.020       46
    8.035       40
    8.050       47
    8.065       40
    8.080       47
    8.095       45
    8.110       38
    8.125       43
    8.140       45
    8.155       41
    8.170       41
    8.185       46
    8.200       49
    8.215       49
    8.230       50
    8.245       53
    8.260       52
    8.275       42
    8.290       42
    8.305       44
    8.320       43
    8.335       34
    8.350       44
    8.365       57
    8.380       54
    8.395       48
    8.410       44
    8.425       35
    8.440       37
    8.455       43
    8.470       49
    8.485       40
    8.500       44
    8.515       50
    8.530       62
    8.545       59
    8.560       47
    8.575       48
    8.590       55
    8.605       47
    8.620       52
    8.635       35
    8.650       50
    8.665       43
    8.680       39
    8.695       44
    8.710       50
    8.725       50
    8.740       34
    8.755       39
    8.770       38
    8.785       54
    8.800       37
    8.815       48
    8.830       43
    8.845       40
    8.860       49
    8.875       33
    8.890       43
    8.905       44
    8.920       43
    8.935       38
    8.950       53
    8.965       52
    8.980       54
    8.995       52
    9.010       52
    9.025       51
    9.040       43
    9.055       45
    9.070       42
    9.085       47
    9.100       35
    9.115       46
    9.130       48
    9.145       45
    9.160       47
    9.175       49
    9.190       49
    9.205       48
    9.220       47
    9.235       53
    9.250       45
    9.265       47
    9.280       50
    9.295       48
    9.310       40
    9.325       37
    9.340       44
    9.355       44
    9.370       39
    9.385       51
    9.400       34
    9.415       44
    9.430       41
    9.445       46
    9.460       54
    9.475       42
    9.490       43
    9.505       46
    9.520       46
    9.535       49
    9.550       37
    9.565       41
    9.580       52
    9.595       45
    9.610       49
    9.625       39
    9.640       43
    9.655       49
    9.670       54
    9.685       44
    9.700       57
    9.715       56
    9.730       56
    9.745       56
    9.760       46
    9.775       75
    9.790       68
    9.805       61
    9.820       63
    9.835       56
    9.850       62
    9.865       44
    9.880       56
    9.895       44
    9.910       43
    9.925       47
    9.940       40
    9.955       45
    9.970       46
    9.985       47
   10.000       43
   10.015       49
   10.030       48
   10.045       40
   10.060       49
   10.075       50
   10.090       48
   10.105       41
   10.120       50
   10.135       40
   10.150       45
   10.165       52
   10.180       45
   10.195       55
   10.210       38
   10.225       45
   10.240       50
   10.255       48
   10.270       57
   10.285       64
   10.300       45
   10.315       54
   10.330       60
   10.345       65
   10.360       76
   10.375       84
   10.390       95
   10.405      104
   10.420      112
   10.435      118
   10.450      128
   10.465      140
   10.480      122
   10.495      117
   10.510       90
   10.525       67
   10.540       52
   10.555       49
   10.570       50
   10.585       42
   10.600       38
   10.615       40
   10.630       58
   10.645       56
   10.660       56
   10.675       52
   10.690       61
   10.705       49
   10.720       62
   10.735       66
   10.750       54
   10.765       66
   10.780       88
   10.795       79
   10.810       78
   10.825       88
   10.840      101
   10.855      130
   10.870      123
   10.885      111
   10.900       99
   10.915       67
   10.930       66
   10.945       63
   10.960       60
   10.975       56
   10.990       54
   11.005       60
   11.020       60
   11.035       56
   11.050       66
   11.065       74
   11.080       85
   11.095       80
   11.110       74
   11.125       72
   11.140       69
   11.155       60
   11.170       59
   11.185       62
   11.200       79
   11.215       87
   11.230       99
   11.245      106
   11.260       94
   11.275       72
   11.290       57
   11.305       59
   11.320       64
   11.335       61
   11.350       50
   11.365       56
   11.380       56
   11.395       62
   11.410       63
   11.425       69
   11.440       68
   11.455       67
   11.470       57
   11.485       54
   11.500       41
   11.515       52
   11.530       50
   11.545       48
   11.560       44
   11.575       52
   11.590       43
   11.605       44
   11.620       45
   11.635       44
   11.650       51
   11.665       55
   11.680       50
   11.695       47
   11.710       41
   11.725       61
   11.740       55
   11.755       56
   11.770       56
   11.785       66
   11.800       65
   11.815       58
   11.830       73
   11.845       60
   11.860       49
   11.875       54
   11.890       61
   11.905       60
   11.920       71
   11.935       55
   11.950       52
   11.965       47
   11.980       57
   11.995       43
   12.010       48
   12.025       61
   12.040       65
   12.055       64
   12.070       65
   12.085       54
   12.100       51
   12.115       41
   12.130       41
   12.145       45
   12.160       47
   12.175       48
   12.190       44
   12.205       45
   12.220       38
   12.235       47
   12.250       45
   12.265       40
   12.280       39
   12.295       40
   12.310       37
   12.325       42
   12.340       53
   12.355       53
   12.370       48
   12.385       37
   12.400       47
   12.415       51
   12.430       55
   12.445       54
   12.460       53
   12.475       59
   12.490       57
   12.505       85
   12.520       88
   12.535      100
   12.550      109
   12.565      116
   12.580      159
   12.595      172
   12.610      219
   12.625      235
   12.640      280
   12.655      419
   12.670      483
   12.685      496
   12.700      423
   12.715      330
   12.730      286
   12.745      260
   12.760      314
   12.775      329
   12.790      301
   12.805      216
   12.820      130
   12.835       94
   12.850       81
   12.865       39
   12.880       57
   12.895       58
   12.910       57
   12.925       72
   12.940       70
   12.955       85
   12.970       90
   12.985      111
   13.000      115
   13.015      129
   13.030      157
   13.045      172
   13.060      250
   13.075      296
   13.090      286
   13.105      246
   13.120      203
   13.135      164
   13.150      148
   13.165      167
   13.180      202
   13.195      264
   13.210      329
   13.225      456
   13.240      577
   13.255      688
   13.270      606
   13.285      506
   13.300      506
   13.315      484
   13.330      589
   13.345      737
   13.360     1047
   13.375     1226
   13.390     1167
   13.405      863
   13.420      486
   13.435      257
   13.450      153
   13.465      123
   13.480      107
   13.495      107
   13.510      117
   13.525      123
   13.540      168
   13.555      177
   13.570      203
   13.585      257
   13.600      280
   13.615      279
   13.630      280
   13.645      306
   13.660      250
   13.675      203
   13.690      132
   13.705       89
   13.720       68
   13.735       63
   13.750       60
   13.765       59
   13.780       52
   13.795       61
   13.810       77
   13.825       75
   13.840       82
   13.855       93
   13.870       98
   13.885      113
   13.900       96
   13.915       95
   13.930       71
   13.945       46
   13.960       43
   13.975       42
   13.990       37
   14.005       48
   14.020       52
   14.035       54
   14.050       52
   14.065       57
   14.080       54
   14.095       53
   14.110       57
   14.125       53
   14.140       52
   14.155       45
   14.170       57
   14.185       67
   14.200       63
   14.215       56
   14.230       61
   14.245       86
   14.260       84
   14.275       82
   14.290       98
   14.305      126
   14.320      150
   14.335      163
   14.350      167
   14.365      143
   14.380      141
   14.395      122
   14.410      155
   14.425      167
   14.440      163
   14.455      152
   14.470      174
   14.485      200
   14.500      210
   14.515      269
   14.530      335
   14.545      318
   14.560      297
   14.575      190
   14.590      108
   14.605       80
   14.620       62
   14.635       51
   14.650       47
   14.665       44
   14.680       53
   14.695       47
   14.710       43
   14.725       41
   14.740       45
   14.755       49
   14.770       43
   14.785       55
   14.800       46
   14.815       49
   14.830       40
   14.845       39
   14.860       40
   14.875       45
   14.890       48
   14.905       54
   14.920       57
   14.935       68
   14.950       96
   14.965       88
   14.980      108
   14.995      136
   15.010      165
   15.025      208
   15.040      281
   15.055      291
   15.070      332
   15.085      369
   15.100      429
   15.115      536
   15.130      686
   15.145      818
   15.160      732
   15.175      540
   15.190      330
   15.205      180
   15.220      121
   15.235      121
   15.250      104
   15.265      107
   15.280      113
   15.295      143
   15.310      143
   15.325      165
   15.340      190
   15.355      226
   15.370      229
   15.385      203
   15.400      161
   15.415      138
   15.430      144
   15.445      159
   15.460      154
   15.475      115
   15.490       95
   15.505       93
   15.520       98
   15.535      106
   15.550      102
   15.565      140
   15.580      150
   15.595      181
   15.610      231
   15.625      307
   15.640      374
   15.655      402
   15.670      302
   15.685      181
   15.700      141
   15.715       95
   15.730      104
   15.745      110
   15.760      118
   15.775      158
   15.790      183
   15.805      227
   15.820      270
   15.835      314
   15.850      272
   15.865      187
   15.880      128
   15.895       91
   15.910       65
   15.925       54
   15.940       47
   15.955       54
   15.970       55
   15.985       56
   16.000       69
   16.015       62
   16.030       70
   16.045       89
   16.060       97
   16.075      122
   16.090      130
   16.105      174
   16.120      207
   16.135      260
   16.150      309
   16.165      366
   16.180      373
   16.195      316
   16.210      242
   16.225      136
   16.240       98
   16.255       83
   16.270       84
   16.285       83
   16.300       98
   16.315      119
   16.330      116
   16.345      163
   16.360      216
   16.375      211
   16.390      206
   16.405      230
   16.420      240
   16.435      271
   16.450      345
   16.465      431
   16.480      490
   16.495      385
   16.510      331
   16.525      223
   16.540      174
   16.555      193
   16.570      229
   16.585      287
   16.600      342
   16.615      388
   16.630      414
   16.645      373
   16.660      263
   16.675      211
   16.690      192
   16.705      221
   16.720      255
   16.735      300
   16.750      337
   16.765      366
   16.780      373
   16.795      328
   16.810      296
   16.825      304
   16.840      307
   16.855      345
   16.870      349
   16.885      279
   16.900      200
   16.915      142
   16.930       99
   16.945       92
   16.960       73
   16.975       79
   16.990       80
   17.005      103
   17.020      103
   17.035      127
   17.050      179
   17.065      207
   17.080      239
   17.095      229
   17.110      181
   17.125      155
   17.140      120
   17.155      105
   17.170      114
   17.185      131
   17.200      166
   17.215      187
   17.230      226
   17.245      270
   17.260      321
   17.275      350
   17.290      329
   17.305      262
   17.320      203
   17.335      154
   17.350      138
   17.365      133
   17.380      118
   17.395      122
   17.410      109
   17.425      107
   17.440      109
   17.455      132
   17.470      150
   17.485      174
   17.500      211
   17.515      250
   17.530      244
   17.545      245
   17.560      187
   17.575      112
   17.590       76
   17.605       60
   17.620       64
   17.635       69
   17.650       79
   17.665       71
   17.680       77
   17.695      100
   17.710      101
   17.725      104
   17.740       97
   17.755      109
   17.770      107
   17.785      100
   17.800      117
   17.815      129
   17.830      109
   17.845       72
   17.860       79
   17.875       67
   17.890       61
   17.905       60
   17.920       71
   17.935       52
   17.950       56
   17.965       58
   17.980       59
   17.995       48
   18.010       55
   18.025       46
   18.040       42
   18.055       56
   18.070       62
   18.085       49
   18.100       55
   18.115       73
   18.130       58
   18.145       69
   18.160       69
   18.175       55
   18.190       64
   18.205       78
   18.220       70
   18.235       67
   18.250       78
   18.265       91
   18.280      113
   18.295      124
   18.310      144
   18.325      179
   18.340      164
   18.355      169
   18.370      168
   18.385      136
   18.400      106
   18.415       83
   18.430       67
   18.445       53
   18.460       43
   18.475       46
   18.490       49
   18.505       53
   18.520       65
   18.535       79
   18.550       86
   18.565       90
   18.580      102
   18.595      126
   18.610      142
   18.625      163
   18.640      151
   18.655      128
   18.670      147
   18.685      152
   18.700      173
   18.715      183
   18.730      205
   18.745      191
   18.760      183
   18.775      154
   18.790      132
   18.805       83
   18.820       66
   18.835       55
   18.850       61
   18.865       67
   18.880       69
   18.895       72
   18.910       83
   18.925       89
   18.940      124
   18.955      154
   18.970      144
   18.985      137
   19.000      117
   19.015      123
   19.030      113
   19.045      111
   19.060       99
   19.075       69
   19.090       57
   19.105       48
   19.120       56
   19.135       46
   19.150       53
   19.165       44
   19.180       46
   19.195       40
   19.210       51
   19.225       42
   19.240       49
   19.255       40
   19.270       36
   19.285       41
   19.300       35
   19.315       44
   19.330       41
   19.345       49
   19.360       41
   19.375       30
   19.390       39
   19.405       38
   19.420       52
   19.435       40
   19.450       44
   19.465       43
   19.480       42
   19.495       50
   19.510       46
   19.525       57
   19.540       55
   19.555       63
   19.570       74
   19.585       79
   19.600       93
   19.615      110
   19.630      121
   19.645      162
   19.660      159
   19.675      167
   19.690      163
   19.705      166
   19.720      163
   19.735      129
   19.750       96
   19.765       74
   19.780       71
   19.795       67
   19.810       76
   19.825      109
   19.840      118
   19.855      148
   19.870      180
   19.885      223
   19.900      282
   19.915      349
   19.930      449
   19.945      464
   19.960      436
   19.975      354
   19.990      256
   20.005      202
   20.020      167
   20.035      157
   20.050      168
   20.065      205
   20.080      258
   20.095      256
   20.110      238
   20.125      210
   20.140      174
   20.155      131
   20.170       95
   20.185       80
   20.200       73
   20.215       62
   20.230       67
   20.245       74
   20.260       91
   20.275      106
   20.290      102
   20.305      100
   20.320      103
   20.335       83
   20.350       60
   20.365       43
   20.380       40
   20.395       44
   20.410       52
   20.425       45
   20.440       42
   20.455       45
   20.470       46
   20.485       49
   20.500       51
   20.515       49
   20.530       50
   20.545       56
   20.560       50
   20.575       54
   20.590       59
   20.605       81
   20.620       79
   20.635       71
   20.650       95
   20.665       86
   20.680       73
   20.695       47
   20.710       63
   20.725       67
   20.740       62
   20.755       69
   20.770       84
   20.785       87
   20.800      112
   20.815      132
   20.830      153
   20.845      181
   20.860      185
   20.875      172
   20.890      196
   20.905      200
   20.920      224
   20.935      173
   20.950      174
   20.965      138
   20.980       96
   20.995       87
   21.010       69
   21.025       57
   21.040       68
   21.055       60
   21.070       60
   21.085       53
   21.100       58
   21.115       59
   21.130       50
   21.145       57
   21.160       70
   21.175       61
   21.190       59
   21.205       58
   21.220       68
   21.235       81
   21.250       62
   21.265       77
   21.280       93
   21.295      101
   21.310       94
   21.325       69
   21.340       69
   21.355       61
   21.370       48
   21.385       42
   21.400       51
   21.415       44
   21.430       39
   21.445       35
   21.460       51
   21.475       51
   21.490       49
   21.505       52
   21.520       49
   21.535       61
   21.550       61
   21.565       77
   21.580       99
   21.595      117
   21.610      154
   21.625      186
   21.640      215
   21.655      207
   21.670      193
   21.685      188
   21.700      147
   21.715      137
   21.730      140
   21.745      146
   21.760      148
   21.775      184
   21.790      242
   21.805      292
   21.820      409
   21.835      467
   21.850      583
   21.865      574
   21.880      473
   21.895      378
   21.910      254
   21.925      183
   21.940      156
   21.955      129
   21.970      123
   21.985      109
   22.000      105
   22.015       84
   22.030       81
   22.045       66
   22.060       50
   22.075       57
   22.090       63
   22.105       53
   22.120       46
   22.135       53
   22.150       46
   22.165       47
   22.180       78
   22.195       71
   22.210       61
   22.225       72
   22.240       73
   22.255       63
   22.270       58
   22.285       66
   22.300       82
   22.315       81
   22.330      105
   22.345       97
   22.360       82
   22.375       78
   22.390       78
   22.405       96
   22.420       94
   22.435      123
   22.450      127
   22.465      139
   22.480      130
   22.495      102
   22.510       83
   22.525       78
   22.540       82
   22.555       65
   22.570       66
   22.585       91
   22.600      124
   22.615      142
   22.630      164
   22.645      172
   22.660      184
   22.675      224
   22.690      190
   22.705      154
   22.720      109
   22.735       92
   22.750       94
   22.765      103
   22.780      101
   22.795      109
   22.810      130
   22.825      147
   22.840      175
   22.855      186
   22.870      216
   22.885      263
   22.900      245
   22.915      215
   22.930      178
   22.945      174
   22.960      156
   22.975      116
   22.990      104
   23.005       87
   23.020       88
   23.035       75
   23.050       68
   23.065       72
   23.080       84
   23.095       97
   23.110      105
   23.125      108
   23.140      107
   23.155       88
   23.170       72
   23.185       68
   23.200       82
   23.215       85
   23.230       92
   23.245       85
   23.260      114
   23.275      124
   23.290       99
   23.305       93
   23.320       74
   23.335       77
   23.350       60
   23.365       54
   23.380       57
   23.395       65
   23.410       81
   23.425       77
   23.440       68
   23.455       96
   23.470       90
   23.485       62
   23.500       60
   23.515       48
   23.530       45
   23.545       56
   23.560       47
   23.575       41
   23.590       39
   23.605       35
   23.620       42
   23.635       42
   23.650       55
   23.665       51
   23.680       47
   23.695       51
   23.710       48
   23.725       44
   23.740       44
   23.755       41
   23.770       47
   23.785       41
   23.800       51
   23.815       49
   23.830       56
   23.845       67
   23.860       65
   23.875       80
   23.890       73
   23.905       82
   23.920       96
   23.935       78
   23.950       60
   23.965       58
   23.980       61
   23.995       63
   24.010       70
   24.025       84
   24.040      118
   24.055      131
   24.070      111
   24.085      111
   24.100       91
   24.115       70
   24.130       62
   24.145       51
   24.160       48
   24.175       46
   24.190       46
   24.205       62
   24.220       54
   24.235       69
   24.250       71
   24.265       97
   24.280      115
   24.295      116
   24.310      128
   24.325      118
   24.340       83
   24.355       62
   24.370       51
   24.385       48
   24.400       53
   24.415       50
   24.430       41
   24.445       53
   24.460       51
   24.475       48
   24.490       58
   24.505       77
   24.520       84
   24.535       73
   24.550       65
   24.565       74
   24.580       66
   24.595       74
   24.610       85
   24.625       89
   24.640       83
   24.655       70
   24.670       82
   24.685       67
   24.700       83
   24.715       79
   24.730       72
   24.745       72
   24.760       69
   24.775       68
   24.790       91
   24.805       79
   24.820       80
   24.835       63
   24.850       61
   24.865       57
   24.880       53
   24.895       51
   24.910       42
   24.925       47
   24.940       59
   24.955       68
   24.970       94
   24.985       99
   25.000      120
   25.015      132
   25.030      139
   25.045      112
   25.060       97
   25.075       75
   25.090       83
   25.105       84
   25.120       79
   25.135       80
   25.150       85
   25.165       80
   25.180       78
   25.195       90
   25.210      107
   25.225      100
   25.240       89
   25.255       89
   25.270       94
   25.285       76
   25.300       73
   25.315       63
   25.330       58
   25.345       44
   25.360       58
   25.375       48
   25.390       50
   25.405       60
   25.420       68
   25.435       85
   25.450       78
   25.465      102
   25.480      126
   25.495      123
   25.510      108
   25.525       87
   25.540       76
   25.555       67
   25.570       72
   25.585       60
   25.600       57
   25.615       80
   25.630       91
   25.645      105
   25.660      119
   25.675      134
   25.690      182
   25.705      226
   25.720      264
   25.735      252
   25.750      230
   25.765      217
   25.780      173
   25.795      123
   25.810      102
   25.825       85
   25.840       89
   25.855       83
   25.870       96
   25.885      115
   25.900      139
   25.915      148
   25.930      180
   25.945      174
   25.960      146
   25.975      121
   25.990       90
   26.005       72
   26.020       71
   26.035       77
   26.050       81
   26.065       85
   26.080       81
   26.095       77
   26.110       83
   26.125       87
   26.140       97
   26.155      104
   26.170      128
   26.185      124
   26.200      122
   26.215      127
   26.230      108
   26.245       92
   26.260       75
   26.275       65
   26.290       59
   26.305       49
   26.320       56
   26.335       63
   26.350       72
   26.365       69
   26.380       68
   26.395       71
   26.410       87
   26.425       96
   26.440       71
   26.455       75
   26.470       61
   26.485       44
   26.500       39
   26.515       47
   26.530       49
   26.545       50
   26.560       43
   26.575       42
   26.590       46
   26.605       47
   26.620       57
   26.635       65
   26.650       72
   26.665       81
   26.680       87
   26.695      107
   26.710      110
   26.725       83
   26.740       74
   26.755       59
   26.770       56
   26.785       47
   26.800       41
   26.815       65
   26.830       56
   26.845       54
   26.860       65
   26.875       78
   26.890       83
   26.905       99
   26.920      141
   26.935      165
   26.950      198
   26.965      189
   26.980      183
   26.995      191
   27.010      182
   27.025      184
   27.040      174
   27.055      172
   27.070      171
   27.085      133
   27.100      128
   27.115       98
   27.130       55
   27.145       56
   27.160       68
   27.175       57
   27.190       60
   27.205       62
   27.220       65
   27.235       68
   27.250       86
   27.265       94
   27.280       89
   27.295       84
   27.310       68
   27.325       69
   27.340       76
   27.355       72
   27.370       85
   27.385       79
   27.400       72
   27.415       91
   27.430       83
   27.445       87
   27.460       83
   27.475       99
   27.490      104
   27.505      101
   27.520      129
   27.535      145
   27.550      156
   27.565      148
   27.580      159
   27.595      146
   27.610      167
   27.625      167
   27.640      191
   27.655      189
   27.670      196
   27.685      209
   27.700      174
   27.715      150
   27.730      153
   27.745      147
   27.760      111
   27.775      115
   27.790       99
   27.805       78
   27.820       78
   27.835       67
   27.850       82
   27.865       95
   27.880      101
   27.895      132
   27.910      122
   27.925      147
   27.940      137
   27.955      134
   27.970      111
   27.985      109
   28.000       93
   28.015       81
   28.030       73
   28.045       66
   28.060       61
   28.075       52
   28.090       46
   28.105       54
   28.120       60
   28.135       67
   28.150       62
   28.165       73
   28.180       87
   28.195       89
   28.210       76
   28.225       90
   28.240       85
   28.255       90
   28.270       90
   28.285       76
   28.300       68
   28.315       74
   28.330      101
   28.345      122
   28.360      106
   28.375       98
   28.390       90
   28.405       96
   28.420       95
   28.435       92
   28.450      102
   28.465      111
   28.480       98
   28.495       92
   28.510       78
   28.525       70
   28.540       63
   28.555       59
   28.570       55
   28.585       54
   28.600       56
   28.615       54
   28.630       48
   28.645       57
   28.660       49
   28.675       59
   28.690       65
   28.705       74
   28.720       67
   28.735       82
   28.750       82
   28.765       87
   28.780       92
   28.795       86
   28.810       77
   28.825       62
   28.840       54
   28.855       54
   28.870       62
   28.885       69
   28.900       84
   28.915       88
   28.930       99
   28.945      108
   28.960      102
   28.975       96
   28.990      104
   29.005      125
   29.020      102
   29.035       91
   29.050       91
   29.065       95
   29.080       94
   29.095      112
   29.110      114
   29.125      127
   29.140      115
   29.155      100
   29.170      103
   29.185       85
   29.200       95
   29.215       83
   29.230       81
   29.245       70
   29.260       74
   29.275       74
   29.290       78
   29.305       76
   29.320       74
   29.335       68
   29.350       60
   29.365       67
   29.380       71
   29.395       68
   29.410       65
   29.425       51
   29.440       49
   29.455       57
   29.470       66
   29.485       64
   29.500       76
   29.515       73
   29.530       86
   29.545       98
   29.560      102
   29.575      114
   29.590      114
   29.605       97
   29.620       93
   29.635       91
   29.650       87
   29.665      102
   29.680      112
   29.695      124
   29.710      137
   29.725      135
   29.740      160
   29.755      139
   29.770      138
   29.785      113
   29.800      108
   29.815       80
   29.830       82
   29.845       83
   29.860       76
   29.875       60
   29.890       55
   29.905       60
   29.920       61
   29.935       69
   29.950       66
   29.965       71
   29.980       64
   29.995       62
   30.010       44
   30.025       49
   30.040       48
   30.055       50
   30.070       55
   30.085       49
   30.100       44
   30.115       59
   30.130       61
   30.145       55
   30.160       50
   30.175       57
   30.190       51
   30.205       47
   30.220       51
   30.235       63
   30.250       57
   30.265       66
   30.280       58
   30.295       63
   30.310       62
   30.325       61
   30.340       68
   30.355       68
   30.370       78
   30.385       64
   30.400       59
   30.415       59
   30.430       68
   30.445       51
   30.460       54
   30.475       56
   30.490       58
   30.505       51
   30.520       51
   30.535       60
   30.550       63
   30.565       84
   30.580       91
   30.595       77
   30.610       99
   30.625      111
   30.640      103
   30.655      123
   30.670      127
   30.685      102
   30.700      112
   30.715       90
   30.730       88
   30.745       69
   30.760       48
   30.775       46
   30.790       46
   30.805       49
   30.820       49
   30.835       52
   30.850       43
   30.865       47
   30.880       53
   30.895       47
   30.910       64
   30.925       62
   30.940       61
   30.955       77
   30.970       85
   30.985       85
   31.000      118
   31.015      116
   31.030      129
   31.045      120
   31.060      105
   31.075       89
   31.090       86
   31.105       91
   31.120       80
   31.135       67
   31.150       64
   31.165       75
   31.180       84
   31.195       77
   31.210       82
   31.225       72
   31.240       67
   31.255       71
   31.270       60
   31.285       71
   31.300       68
   31.315       70
   31.330       68
   31.345       69
   31.360       69
   31.375       69
   31.390       87
   31.405      101
   31.420      114
   31.435      100
   31.450      101
   31.465       81
   31.480       82
   31.495       82
   31.510       75
   31.525       68
   31.540       71
   31.555       79
   31.570       79
   31.585       91
   31.600      102
   31.615       96
   31.630      112
   31.645      124
   31.660      102
   31.675      119
   31.690       90
   31.705       85
   31.720       85
   31.735       86
   31.750       97
   31.765      104
   31.780      102
   31.795       97
   31.810      105
   31.825       97
   31.840       98
   31.855       93
   31.870       89
   31.885      105
   31.900      125
   31.915      128
   31.930      127
   31.945      126
   31.960      119
   31.975      124
   31.990      110
   32.005       97
   32.020       69
   32.035       89
   32.050       91
   32.065       81
   32.080       80
   32.095       79
   32.110       76
   32.125       80
   32.140       87
   32.155       84
   32.170      101
   32.185      108
   32.200      113
   32.215       99
   32.230       87
   32.245       74
   32.260       61
   32.275       66
   32.290       57
   32.305       67
   32.320       59
   32.335       67
   32.350       66
   32.365       48
   32.380       47
   32.395       59
   32.410       66
   32.425       67
   32.440       67
   32.455       75
   32.470       76
   32.485       77
   32.500       80
   32.515       71
   32.530       62
   32.545       49
   32.560       52
   32.575       54
   32.590       55
   32.605       51
   32.620       53
   32.635       45
   32.650       53
   32.665       60
   32.680       62
   32.695       63
   32.710       55
   32.725       57
   32.740       50
   32.755       40
   32.770       62
   32.785       56
   32.800       62
   32.815       51
   32.830       54
   32.845       53
   32.860       56
   32.875       58
   32.890       62
   32.905       55
   32.920       60
   32.935       59
   32.950       69
   32.965       74
   32.980       90
   32.995      106
   33.010      119
   33.025      111
   33.040       92
   33.055      108
   33.070      105
   33.085       94
   33.100       95
   33.115       84
   33.130       79
   33.145       63
   33.160       61
   33.175       59
   33.190       62
   33.205       74
   33.220       75
   33.235       71
   33.250       72
   33.265       80
   33.280       64
   33.295       74
   33.310       67
   33.325       65
   33.340       66
   33.355       56
   33.370       57
   33.385       64
   33.400       67
   33.415       66
   33.430       72
   33.445       68
   33.460       85
   33.475       90
   33.490       88
   33.505      105
   33.520      101
   33.535      114
   33.550      126
   33.565      118
   33.580      119
   33.595      111
   33.610      109
   33.625      122
   33.640      120
   33.655      110
   33.670      100
   33.685      115
   33.700       89
   33.715       81
   33.730       79
   33.745       81
   33.760       85
   33.775       72
   33.790       78
   33.805       92
   33.820      106
   33.835       97
   33.850      124
   33.865      144
   33.880      117
   33.895      124
   33.910      125
   33.925      110
   33.940      102
   33.955       84
   33.970       72
   33.985       70
   34.000       89
   34.015       86
   34.030       91
   34.045       98
   34.060       95
   34.075       96
   34.090       97
   34.105      110
   34.120      105
   34.135       89
   34.150       94
   34.165       95
   34.180       77
   34.195       76
   34.210       82
   34.225       76
   34.240       70
   34.255       59
   34.270       62
   34.285       68
   34.300       54
   34.315       50
   34.330       47
   34.345       46
   34.360       65
   34.375       53
   34.390       44
   34.405       45
   34.420       59
   34.435       56
   34.450       60
   34.465       68
   34.480       61
   34.495       61
   34.510       65
   34.525       88
   34.540       85
   34.555       87
   34.570      103
   34.585      104
   34.600       95
   34.615      106
   34.630       85
   34.645       65
   34.660       61
   34.675       69
   34.690       54
   34.705       51
   34.720       53
   34.735       63
   34.750       65
   34.765       69
   34.780       68
   34.795       79
   34.810       78
   34.825       66
   34.840       66
   34.855       52
   34.870       53
   34.885       49
   34.900       64
   34.915       71
   34.930       70
   34.945       75
   34.960       70
   34.975       73
   34.990       73
   35.005       64
   35.020       70
   35.035       73
   35.050       81
   35.065       68
   35.080       66
   35.095       76
   35.110       86
   35.125       91
   35.140      100
   35.155      102
   35.170       83
   35.185       69
   35.200       63
   35.215       73
   35.230       96
   35.245       78
   35.260       77
   35.275       76
   35.290       70
   35.305       85
   35.320       86
   35.335       90
   35.350       90
   35.365       99
   35.380       98
   35.395      102
   35.410      112
   35.425      107
   35.440      125
   35.455      122
   35.470      142
   35.485      145
   35.500      147
   35.515      154
   35.530      148
   35.545      142
   35.560      124
   35.575      100
   35.590       94
   35.605      102
   35.620      121
   35.635      133
   35.650      141
   35.665      145
   35.680      138
   35.695      131
   35.710      119
   35.725      106
   35.740       98
   35.755      102
   35.770      110
   35.785       84
   35.800      107
   35.815       72
   35.830       66
   35.845       65
   35.860       68
   35.875       59
   35.890       55
   35.905       53
   35.920       52
   35.935       57
   35.950       72
   35.965       52
   35.980       46
   35.995       50
   36.010       51
   36.025       58
   36.040       56
   36.055       47
   36.070       54
   36.085       64
   36.100       57
   36.115       63
   36.130       63
   36.145       67
   36.160       56
   36.175       56
   36.190       62
   36.205       52
   36.220       63
   36.235       64
   36.250       78
   36.265       68
   36.280       72
   36.295       70
   36.310       85
   36.325       90
   36.340       85
   36.355       97
   36.370       85
   36.385       80
   36.400       77
   36.415       76
   36.430       60
   36.445       57
   36.460       66
   36.475       51
   36.490       47
   36.505       59
   36.520       62
   36.535       51
   36.550       46
   36.565       49
   36.580       64
   36.595       57
   36.610       52
   36.625       62
   36.640       65
   36.655       76
   36.670       69
   36.685       67
   36.700       60
   36.715       54
   36.730       69
   36.745       69
   36.760       60
   36.775       69
   36.790       85
   36.805       85
   36.820      107
   36.835      112
   36.850       78
   36.865       81
   36.880       88
   36.895       70
   36.910       70
   36.925       54
   36.940       61
   36.955       59
   36.970       74
   36.985       80
   37.000       67
   37.015       70
   37.030       63
   37.045       69
   37.060       72
   37.075       75
   37.090       61
   37.105       69
   37.120       84
   37.135       86
   37.150       73
   37.165       81
   37.180       82
   37.195       72
   37.210       67
   37.225       60
   37.240       67
   37.255       61
   37.270       66
   37.285       72
   37.300       90
   37.315       90
   37.330       91
   37.345       83
   37.360       77
   37.375       81
   37.390       75
   37.405      100
   37.420       85
   37.435       78
   37.450       63
   37.465       57
   37.480       60
   37.495       58
   37.510       49
   37.525       48
   37.540       49
   37.555       57
   37.570       48
   37.585       52
   37.600       63
   37.615       61
   37.630       67
   37.645       64
   37.660       64
   37.675       59
   37.690       48
   37.705       64
   37.720       57
   37.735       58
   37.750       70
   37.765       71
   37.780       69
   37.795       63
   37.810       72
   37.825       51
   37.840       58
   37.855       53
   37.870       74
   37.885       74
   37.900       69
   37.915       60
   37.930       62
   37.945       71
   37.960       69
   37.975       62
   37.990       61
   38.005       61
   38.020       63
   38.035       54
   38.050       74
   38.065       78
   38.080       69
   38.095       74
   38.110       69
   38.125       68
   38.140       59
   38.155       49
   38.170       46
   38.185       50
   38.200       57
   38.215       48
   38.230       46
   38.245       48
   38.260       67
   38.275       70
   38.290       67
   38.305       61
   38.320       72
   38.335       62
   38.350       54
   38.365       54
   38.380       60
   38.395       57
   38.410       57
   38.425       71
   38.440       81
   38.455       88
   38.470      111
   38.485       96
   38.500       83
   38.515       80
   38.530       85
   38.545       88
   38.560       71
   38.575       64
   38.590       63
   38.605       66
   38.620       68
   38.635       63
   38.650       63
   38.665       75
   38.680       75
   38.695       78
   38.710       79
   38.725       67
   38.740       75
   38.755       70
   38.770       71
   38.785       78
   38.800       62
   38.815       61
   38.830       59
   38.845       57
   38.860       57
   38.875       62
   38.890       75
   38.905       65
   38.920       73
   38.935       70
   38.950       63
   38.965       73
   38.980       78
   38.995       69
   39.010       68
   39.025       83
   39.040       82
   39.055       68
   39.070       66
   39.085       65
   39.100       58
   39.115       66
   39.130       55
   39.145       54
   39.160       60
   39.175       63
   39.190       55
   39.205       52
   39.220       66
   39.235       73
   39.250       60
   39.265       51
   39.280       49
   39.295       46
   39.310       59
   39.325       65
   39.340       60
   39.355       67
   39.370       60
   39.385       53
   39.400       46
   39.415       50
   39.430       50
   39.445       47
   39.460       46
   39.475       55
   39.490       49
   39.505       50
   39.520       59
   39.535       56
   39.550       57
   39.565       53
   39.580       46
   39.595       40
   39.610       50
   39.625       50
   39.640       48
   39.655       50
   39.670       56
   39.685       61
   39.700       55
   39.715       59
   39.730       71
   39.745       73
   39.760       60
   39.775       50
   39.790       74
   39.805       66
   39.820       60
   39.835       78
   39.850       76
   39.865       69
   39.880       75
   39.895       76
   39.910       72
   39.925       81
   39.940       82
   39.955       65
   39.970       61
   39.985       77
   40.000       68
   40.015       82
   40.030       68
   40.045       69
   40.060       63
   40.075       68
   40.090       66
   40.105       68
   40.120       65
   40.135       49
   40.150       70
   40.165       52
   40.180       53
   40.195       48
   40.210       47
   40.225       58
   40.240       55
   40.255       67
   40.270       67
   40.285       67
   40.300       51
   40.315       55
   40.330       50
   40.345       59
   40.360       53
   40.375       55
   40.390       51
   40.405       59
   40.420       66
   40.435       75
   40.450       79
   40.465       67
   40.480       66
   40.495       76
   40.510       77
   40.525       78
   40.540       79
   40.555       81
   40.570       79
   40.585       87
   40.600       87
   40.615       80
   40.630       80
   40.645       84
   40.660       74
   40.675       70
   40.690       63
   40.705       66
   40.720       59
   40.735       71
   40.750       65
   40.765       61
   40.780       70
   40.795       74
   40.810       76
   40.825       68
   40.840       91
   40.855      101
   40.870       88
   40.885       78
   40.900       78
   40.915       86
   40.930       91
   40.945       88
   40.960       75
   40.975       82
   40.990       64
   41.005       67
   41.020       68
   41.035       66
   41.050       62
   41.065       58
   41.080       52
   41.095       51
   41.110       50
   41.125       51
   41.140       64
   41.155       67
   41.170       64
   41.185       50
   41.200       52
   41.215       49
   41.230       52
   41.245       60
   41.260       57
   41.275       62
   41.290       59
   41.305       60
   41.320       48
   41.335       52
   41.350       55
   41.365       54
   41.380       43
   41.395       54
   41.410       54
   41.425       44
   41.440       46
   41.455       41
   41.470       43
   41.485       48
   41.500       57
   41.515       56
   41.530       57
   41.545       55
   41.560       61
   41.575       58
   41.590       46
   41.605       45
   41.620       52
   41.635       40
   41.650       44
   41.665       57
   41.680       53
   41.695       52
   41.710       69
   41.725       68
   41.740       54
   41.755       71
   41.770       66
   41.785       65
   41.800       66
   41.815       56
   41.830       59
   41.845       56
   41.860       51
   41.875       62
   41.890       64
   41.905       75
   41.920       61
   41.935       47
   41.950       60
   41.965       59
   41.980       67
   41.995       62
   42.010       57
   42.025       58
   42.040       51
   42.055       54
   42.070       60
   42.085       63
   42.100       61
   42.115       76
   42.130       63
   42.145       65
   42.160       58
   42.175       67
   42.190       55
   42.205       69
   42.220       62
   42.235       63
   42.250       66
   42.265       64
   42.280       66
   42.295       57
   42.310       54
   42.325       67
   42.340       60
   42.355       58
   42.370       68
   42.385       62
   42.400       54
   42.415       79
   42.430       72
   42.445       66
   42.460       68
   42.475       68
   42.490       78
   42.505       59
   42.520       61
   42.535       69
   42.550       73
   42.565       67
   42.580       66
   42.595       59
   42.610       73
   42.625       63
   42.640       67
   42.655       59
   42.670       53
   42.685       55
   42.700       47
   42.715       42
   42.730       45
   42.745       50
   42.760       55
   42.775       53
   42.790       55
   42.805       56
   42.820       53
   42.835       59
   42.850       58
   42.865       51
   42.880       51
   42.895       51
   42.910       57
   42.925       54
   42.940       59
   42.955       43
   42.970       55
   42.985       49
   43.000       54
   43.015       50
   43.030       62
   43.045       54
   43.060       54
   43.075       52
   43.090       54
   43.105       52
   43.120       50
   43.135       47
   43.150       58
   43.165       53
   43.180       59
   43.195       61
   43.210       68
   43.225       59
   43.240       62
   43.255       55
   43.270       59
   43.285       60
   43.300       65
   43.315       66
   43.330       71
   43.345       60
   43.360       51
   43.375       65
   43.390       58
   43.405       60
   43.420       46
   43.435       53
   43.450       62
   43.465       59
   43.480       55
   43.495       51
   43.510       48
   43.525       55
   43.540       51
   43.555       58
   43.570       56
   43.585       59
   43.600       54
   43.615       48
   43.630       57
   43.645       50
   43.660       43
   43.675       50
   43.690       55
   43.705       52
   43.720       48
   43.735       59
   43.750       56
   43.765       56
   43.780       52
   43.795       49
   43.810       53
   43.825       62
   43.840       44
   43.855       54
   43.870       66
   43.885       54
   43.900       45
   43.915       47
   43.930       58
   43.945       62
   43.960       55
   43.975       60
   43.990       56
   44.005       60
   44.020       58
   44.035       65
   44.050       53
   44.065       52
   44.080       66
   44.095       52
   44.110       60
   44.125       59
   44.140       59
   44.155       67
   44.170       70
   44.185       74
   44.200       73
   44.215       70
   44.230       70
   44.245       67
   44.260       57
   44.275       64
   44.290       70
   44.305       72
   44.320       74
   44.335       68
   44.350       60
   44.365       60
   44.380       57
   44.395       57
   44.410       56
   44.425       57
   44.440       53
   44.455       58
   44.470       64
   44.485       56
   44.500       55
   44.515       54
   44.530       58
   44.545       63
   44.560       67
   44.575       55
   44.590       53
   44.605       56
   44.620       51
   44.635       63
   44.650       62
   44.665       73
   44.680       60
   44.695       57
   44.710       53
   44.725       58
   44.740       46
   44.755       57
   44.770       68
   44.785       81
   44.800       88
   44.815       85
   44.830       63
   44.845       64
   44.860       83
   44.875       85
   44.890       80
   44.905       65
   44.920       59
   44.935       60
   44.950       61
   44.965       55
   44.980       63
   44.995       69
   45.010       68
   45.025       71
   45.040       63
   45.055       51
   45.070       73
   45.085       69
   45.100       72
   45.115       85
   45.130       82
   45.145       79
   45.160       88
   45.175       73
   45.190       82
   45.205       78
   45.220       84
   45.235       76
   45.250       84
   45.265       80
   45.280       88
   45.295       90
   45.310       83
   45.325       73
   45.340       61
   45.355       67
   45.370       68
   45.385       70
   45.400       73
   45.415       69
   45.430       63
   45.445       59
   45.460       59
   45.475       53
   45.490       58
   45.505       60
   45.520       67
   45.535       46
   45.550       65
   45.565       70
   45.580       71
   45.595       54
   45.610       55
   45.625       53
   45.640       59
   45.655       66
   45.670       54
   45.685       61
   45.700       63
   45.715       61
   45.730       49
   45.745       63
   45.760       70
   45.775       55
   45.790       55
   45.805       57
   45.820       47
   45.835       41
   45.850       60
   45.865       66
   45.880       46
   45.895       51
   45.910       46
   45.925       41
   45.940       52
   45.955       43
   45.970       48
   45.985       50
