    4.000       53
    4.015       51
    4.030       53
    4.045       51
    4.060       58
    4.075       57
    4.090       55
    4.105       51
    4.120       54
    4.135       51
    4.150       49
    4.165       56
    4.180       47
    4.195       52
    4.210       47
    4.225       46
    4.240       64
    4.255       49
    4.270       53
    4.285       60
    4.300       59
    4.315       50
    4.330       40
    4.345       50
    4.360       44
    4.375       52
    4.390       46
    4.405       51
    4.420       50
    4.435       48
    4.450       50
    4.465       50
    4.480       50
    4.495       39
    4.510       41
    4.525       41
    4.540       42
    4.555       50
    4.570       49
    4.585       53
    4.600       50
    4.615       50
    4.630       43
    4.645       49
    4.660       49
    4.675       54
    4.690       49
    4.705       46
    4.720       65
    4.735       63
    4.750       54
    4.765       53
    4.780       50
    4.795       40
    4.810       36
    4.825       47
    4.840       54
    4.855       44
    4.870       43
    4.885       48
    4.900       47
    4.915       53
    4.930       48
    4.945       50
    4.960       40
    4.975       51
    4.990       47
    5.005       54
    5.020       50
    5.035       43
    5.050       45
    5.065       49
    5.080       44
    5.095       55
    5.110       49
    5.125       51
    5.140       57
    5.155       57
    5.170       44
    5.185       48
    5.200       47
    5.215       39
    5.230       46
    5.245       48
    5.260       49
    5.275       55
    5.290       49
    5.305       52
    5.320       53
    5.335       52
    5.350       62
    5.365       54
    5.380       49
    5.395       43
    5.410       44
    5.425       47
    5.440       53
    5.455       45
    5.470       50
    5.485       46
    5.500       47
    5.515       44
    5.530       47
    5.545       57
    5.560       61
    5.575       40
    5.590       38
    5.605       50
    5.620       44
    5.635       48
    5.650       51
    5.665       39
    5.680       57
    5.695       49
    5.710       45
    5.725       44
    5.740       53
    5.755       52
    5.770       41
    5.785       50
    5.800       42
    5.815       40
    5.830       37
    5.845       58
    5.860       57
    5.875       37
    5.890       37
    5.905       47
    5.920       42
    5.935       43
    5.950       43
    5.965       44
    5.980       56
    5.995       47
    6.010       52
    6.025       52
    6.040       44
    6.055       44
    6.070       51
    6.085       41
    6.100       55
    6.115       46
    6.130       46
    6.145       47
    6.160       44
    6.175       37
    6.190       35
    6.205       50
    6.220       46
    6.235       40
    6.250       51
    6.265       54
    6.280       60
    6.295       49
    6.310       57
    6.325       62
    6.340       68
    6.355       68
    6.370       70
    6.385       73
    6.400       70
    6.415       75
    6.430       81
    6.445       83
    6.460       86
    6.475       91
    6.490       89
    6.505       97
    6.520      112
    6.535      143
    6.550      155
    6.565      191
    6.580      205
    6.595      179
    6.610      195
    6.625      204
    6.640      198
    6.655      190
    6.670      172
    6.685      122
    6.700       55
    6.715       49
    6.730       48
    6.745       50
    6.760       43
    6.775       53
    6.790       46
    6.805       34
    6.820       46
    6.835       47
    6.850       50
    6.865       53
    6.880       46
    6.895       58
    6.910       55
    6.925       51
    6.940       57
    6.955       45
    6.970       53
    6.985       56
    7.000       60
    7.015       52
    7.030       68
    7.045       58
    7.060       64
    7.075       58
    7.090       60
    7.105       59
    7.120       60
    7.135       74
    7.150       94
    7.165      104
    7.180      105
    7.195       94
    7.210       67
    7.225       44
    7.240       46
    7.255       37
    7.270       47
    7.285       42
    7.300       53
    7.315       64
    7.330       43
    7.345       39
    7.360       36
    7.375       51
    7.390       41
    7.405       34
    7.420       38
    7.435       51
    7.450       38
    7.465       38
    7.480       44
    7.495       49
    7.510       48
    7.525       42
    7.540       44
    7.555       55
    7.570       43
    7.585       44
    7.600       47
    7.615       39
    7.630       45
    7.645       48
    7.660       38
    7.675       56
    7.690       48
    7.705       49
    7.720       43
    7.735       45
    7.750       39
    7.765       37
    7.780       43
    7.795       53
    7.810       38
    7.825       43
    7.840       48
    7.855       47
    7.870       49
    7.885       45
    7.900       44
    7.915       38
    7.930       43
    7.945       38
    7.960       43
    7.975       41
    7.990       38
    8.005       39
    8.020       50
    8.035       38
    8.050       43
    8.065       42
    8.080       40
    8.095       38
    8.110       40
    8.125       40
    8.140       48
    8.155       50
    8.170       48
    8.185       44
    8.200       38
    8.215       34
    8.230       47
    8.245       43
    8.260       39
    8.275       45
    8.290       46
    8.305       41
    8.320       49
    8.335       50
    8.350       40
    8.365       42
    8.380       47
    8.395       47
    8.410       41
    8.425       44
    8.440       45
    8.455       49
    8.470       50
    8.485       47
    8.500       50
    8.515       48
    8.530       53
    8.545       43
    8.560       46
    8.575       46
    8.590       45
    8.605       38
    8.620       51
    8.635       54
    8.650       51
    8.665       53
    8.680       34
    8.695       44
    8.710       41
    8.725       47
    8.740       43
    8.755       40
    8.770       38
    8.785       51
    8.800       43
    8.815       37
    8.830       42
    8.845       41
    8.860       46
    8.875       50
    8.890       53
    8.905       49
    8.920       46
    8.935       44
    8.950       52
    8.965       49
    8.980       48
    8.995       49
    9.010       51
    9.025       56
    9.040       45
    9.055       44
    9.070       47
    9.085       37
    9.100       49
    9.115       41
    9.130       43
    9.145       46
    9.160       43
    9.175       40
    9.190       45
    9.205       45
    9.220       37
    9.235       49
    9.250       40
    9.265       43
    9.280       43
    9.295       45
    9.310       45
    9.325       38
    9.340       50
    9.355       53
    9.370       43
    9.385       46
    9.400       43
    9.415       50
    9.430       65
    9.445       59
    9.460       42
    9.475       48
    9.490       54
    9.505       46
    9.520       53
    9.535       49
    9.550       46
    9.565       45
    9.580       45
    9.595       50
    9.610       50
    9.625       46
    9.640       56
    9.655       69
    9.670       60
    9.685       52
    9.700       46
    9.715       50
    9.730       51
    9.745       46
    9.760       55
    9.775       66
    9.790       59
    9.805       46
    9.820       41
    9.835       51
    9.850       48
    9.865       39
    9.880       36
    9.895       31
    9.910       40
    9.925       40
    9.940       37
    9.955       38
    9.970       32
    9.985       42
   10.000       45
   10.015       68
   10.030       61
   10.045       43
   10.060       44
   10.075       47
   10.090       40
   10.105       58
   10.120       48
   10.135       39
   10.150       39
   10.165       45
   10.180       50
   10.195       51
   10.210       44
   10.225       45
   10.240       55
   10.255       56
   10.270       53
   10.285       54
   10.300       59
   10.315       46
   10.330       48
   10.345       59
   10.360       58
   10.375       68
   10.390       80
   10.405       75
   10.420       72
   10.435       91
   10.450       88
   10.465       97
   10.480       66
   10.495       71
   10.510       59
   10.525       51
   10.540       47
   10.555       52
   10.570       50
   10.585       51
   10.600       60
   10.615       56
   10.630       60
   10.645       61
   10.660       56
   10.675       64
   10.690       68
   10.705       57
   10.720       76
   10.735       71
   10.750       67
   10.765       73
   10.780       80
   10.795       86
   10.810       95
   10.825      125
   10.840      142
   10.855      111
   10.870       97
   10.885       70
   10.900       58
   10.915       55
   10.930       53
   10.945       45
   10.960       52
   10.975       48
   10.990       43
   11.005       48
   11.020       51
   11.035       49
   11.050       52
   11.065       51
   11.080       52
   11.095       54
   11.110       54
   11.125       55
   11.140       63
   11.155       65
   11.170       59
   11.185       76
   11.200      108
   11.215      122
   11.230      105
   11.245       86
   11.260       79
   11.275       67
   11.290       62
   11.305       55
   11.320       62
   11.335       57
   11.350       54
   11.365       59
   11.380       68
   11.395       61
   11.410       67
   11.425       59
   11.440       63
   11.455       47
   11.470       52
   11.485       51
   11.500       45
   11.515       39
   11.530       45
   11.545       56
   11.560       60
   11.575       46
   11.590       38
   11.605       32
   11.620       45
   11.635       45
   11.650       47
   11.665       44
   11.680       55
   11.695       44
   11.710       48
   11.725       48
   11.740       51
   11.755       56
   11.770       59
   11.785       52
   11.800       52
   11.815       58
   11.830       66
   11.845       74
   11.860       76
   11.875       74
   11.890       59
   11.905       62
   11.920       49
   11.935       38
   11.950       46
   11.965       49
   11.980       46
   11.995       51
   12.010       62
   12.025       61
   12.040       55
   12.055       65
   12.070       64
   12.085       59
   12.100       59
   12.115       51
   12.130       51
   12.145       48
   12.160       44
   12.175       45
   12.190       45
   12.205       44
   12.220       49
   12.235       52
   12.250       49
   12.265       45
   12.280       46
   12.295       40
   12.310       45
   12.325       52
   12.340       35
   12.355       50
   12.370       50
   12.385       44
   12.400       58
   12.415       56
   12.430       58
   12.445       69
   12.460       75
   12.475       85
   12.490       89
   12.505       96
   12.520      114
   12.535      132
   12.550      134
   12.565      158
   12.580      214
   12.595      228
   12.610      297
   12.625      373
   12.640      443
   12.655      411
   12.670      393
   12.685      309
   12.700      267
   12.715      279
   12.730      298
   12.745      302
   12.760      248
   12.775      177
   12.790      113
   12.805       84
   12.820       65
   12.835       67
   12.850       55
   12.865       65
   12.880       65
   12.895       77
   12.910       81
   12.925       94
   12.940       98
   12.955       96
   12.970      106
   12.985      132
   13.000      152
   13.015      213
   13.030      242
   13.045      248
   13.060      224
   13.075      192
   13.090      166
   13.105      149
   13.120      162
   13.135      187
   13.150      217
   13.165      267
   13.180      362
   13.195      482
   13.210      602
   13.225      633
   13.240      559
   13.255      465
   13.270      458
   13.285      502
   13.300      618
   13.315      851
   13.330     1079
   13.345     1099
   13.360      933
   13.375      584
   13.390      321
   13.405      179
   13.420      116
   13.435       92
   13.450      107
   13.465      144
   13.480      142
   13.495      159
   13.510      159
   13.525      192
   13.540      262
   13.555      301
   13.570      291
   13.585      302
   13.600      317
   13.615      287
   13.630      231
   13.645      160
   13.660      103
   13.675       79
   13.690       64
   13.705       71
   13.720       51
   13.735       58
   13.750       75
   13.765       71
   13.780       73
   13.795       83
   13.810       94
   13.825      100
   13.840      121
   13.855       99
   13.870       89
   13.885       83
   13.900       59
   13.915       56
   13.930       54
   13.945       57
   13.960       49
   13.975       62
   13.990       53
   14.005       48
   14.020       50
   14.035       50
   14.050       59
   14.065       63
   14.080       61
   14.095       59
   14.110       57
   14.125       65
   14.140       83
   14.155       70
   14.170       66
   14.185       80
   14.200       71
   14.215       75
   14.230       87
   14.245      101
   14.260      116
   14.275      143
   14.290      152
   14.305      156
   14.320      160
   14.335      147
   14.350      134
   14.365      126
   14.380      153
   14.395      176
   14.410      186
   14.425      171
   14.440      164
   14.455      185
   14.470      211
   14.485      233
   14.500      292
   14.515      288
   14.530      234
   14.545      160
   14.560      115
   14.575       76
   14.590       71
   14.605       60
   14.620       58
   14.635       49
   14.650       48
   14.665       51
   14.680       58
   14.695       64
   14.710       65
   14.725       53
   14.740       52
   14.755       58
   14.770       64
   14.785       70
   14.800       77
   14.815       59
   14.830       63
   14.845       61
   14.860       62
   14.875       63
   14.890       86
   14.905       88
   14.920       96
   14.935      121
   14.950      127
   14.965      177
   14.980      211
   14.995      260
   15.010      329
   15.025      349
   15.040      377
   15.055      411
   15.070      504
   15.085      684
   15.100      747
   15.115      732
   15.130      552
   15.145      321
   15.160      198
   15.175      119
   15.190      106
   15.205       96
   15.220      115
   15.235      116
   15.250      144
   15.265      148
   15.280      173
   15.295      213
   15.310      250
   15.325      251
   15.340      222
   15.355      202
   15.370      175
   15.385      163
   15.400      159
   15.415      158
   15.430      115
   15.445       92
   15.460       82
   15.475      100
   15.490       93
   15.505      116
   15.520      130
   15.535      136
   15.550      174
   15.565      197
   15.580      259
   15.595      310
   15.610      324
   15.625      308
   15.640      218
   15.655      129
   15.670      105
   15.685      117
   15.700      120
   15.715       99
   15.730      126
   15.745      177
   15.760      205
   15.775      248
   15.790      243
   15.805      240
   15.820      206
   15.835      147
   15.850       95
   15.865       79
   15.880       76
   15.895       63
   15.910       62
   15.925       66
   15.940       59
   15.955       63
   15.970       54
   15.985       71
   16.000       83
   16.015      101
   16.030      136
   16.045      133
   16.060      160
   16.075      199
   16.090      229
   16.105      265
   16.120      341
   16.135      354
   16.150      303
   16.165      243
   16.180      156
   16.195      110
   16.210       96
   16.225       89
   16.240      100
   16.255       98
   16.270      117
   16.285      133
   16.300      147
   16.315      186
   16.330      216
   16.345      197
   16.360      202
   16.375      206
   16.390      233
   16.405      286
   16.420      399
   16.435      450
   16.450      408
   16.465      340
   16.480      264
   16.495      218
   16.510      207
   16.525      225
   16.540      264
   16.555      342
   16.570      359
   16.585      342
   16.600      273
   16.615      208
   16.630      162
   16.645      182
   16.660      216
   16.675      248
   16.690      299
   16.705      342
   16.720      368
   16.735      350
   16.750      278
   16.765      278
   16.780      275
   16.795      282
   16.810      279
   16.825      300
   16.840      241
   16.855      171
   16.870      121
   16.885       93
   16.900       87
   16.915       94
   16.930       82
   16.945       78
   16.960      113
   16.975      135
   16.990      131
   17.005      147
   17.020      203
   17.035      219
   17.050      190
   17.065      170
   17.080      155
   17.095      122
   17.110      112
   17.125      116
   17.140      122
   17.155      138
   17.170      166
   17.185      188
   17.200      234
   17.215      235
   17.230      280
   17.245      276
   17.260      243
   17.275      213
   17.290      144
   17.305      115
   17.320      104
   17.335      113
   17.350      126
   17.365      122
   17.380      113
   17.395      105
   17.410      122
   17.425      131
   17.440      153
   17.455      179
   17.470      230
   17.485      239
   17.500      223
   17.515      166
   17.530      119
   17.545       83
   17.560       51
   17.575       77
   17.590       81
   17.605       86
   17.620       91
   17.635       94
   17.650      119
   17.665       84
   17.680      115
   17.695      105
   17.710      102
   17.725      106
   17.740      108
   17.755       95
   17.770      106
   17.785       98
   17.800       84
   17.815       70
   17.830       73
   17.845       67
   17.860       80
   17.875       73
   17.890       85
   17.905       63
   17.920       64
   17.935       58
   17.950       59
   17.965       52
   17.980       49
   17.995       70
   18.010       53
   18.025       64
   18.040       57
   18.055       61
   18.070       55
   18.085       55
   18.100       56
   18.115       53
   18.130       55
   18.145       70
   18.160       71
   18.175       65
   18.190      101
   18.205       94
   18.220      100
   18.235      111
   18.250      125
   18.265      135
   18.280      164
   18.295      183
   18.310      191
   18.325      166
   18.340      127
   18.355      123
   18.370       82
   18.385       71
   18.400       58
   18.415       46
   18.430       69
   18.445       71
   18.460       72
   18.475       71
   18.490       78
   18.505       82
   18.520      102
   18.535       99
   18.550      121
   18.565      146
   18.580      170
   18.595      162
   18.610      150
   18.625      147
   18.640      137
   18.655      153
   18.670      189
   18.685      205
   18.700      189
   18.715      170
   18.730      128
   18.745      113
   18.760      102
   18.775       89
   18.790       73
   18.805       70
   18.820       78
   18.835       92
   18.850       95
   18.865       93
   18.880      136
   18.895      143
   18.910      144
   18.925      145
   18.940      119
   18.955      114
   18.970      106
   18.985      100
   19.000      114
   19.015      112
   19.030       81
   19.045       69
   19.060       73
   19.075       57
   19.090       64
   19.105       68
   19.120       62
   19.135       56
   19.150       56
   19.165       63
   19.180       61
   19.195       73
   19.210       68
   19.225       73
   19.240       66
   19.255       57
   19.270       44
   19.285       41
   19.300       63
   19.315       53
   19.330       46
   19.345       52
   19.360       51
   19.375       60
   19.390       55
   19.405       53
   19.420       54
   19.435       66
   19.450       71
   19.465       61
   19.480       55
   19.495       69
   19.510       72
   19.525       88
   19.540       82
   19.555       89
   19.570      103
   19.585      137
   19.600      140
   19.615      134
   19.630      151
   19.645      139
   19.660      128
   19.675      103
   19.690       88
   19.705       75
   19.720       75
   19.735       75
   19.750       80
   19.765       91
   19.780       94
   19.795      119
   19.810      145
   19.825      152
   19.840      190
   19.855      258
   19.870      328
   19.885      416
   19.900      412
   19.915      355
   19.930      297
   19.945      233
   19.960      186
   19.975      158
   19.990      208
   20.005      219
   20.020      249
   20.035      243
   20.050      244
   20.065      212
   20.080      179
   20.095      150
   20.110      135
   20.125      106
   20.140       77
   20.155       71
   20.170       75
   20.185       77
   20.200       88
   20.215      108
   20.230      105
   20.245      110
   20.260      111
   20.275       75
   20.290       68
   20.305       69
   20.320       67
   20.335       65
   20.350       63
   20.365       69
   20.380       66
   20.395       62
   20.410       53
   20.425       57
   20.440       60
   20.455       55
   20.470       52
   20.485       64
   20.500       60
   20.515       61
   20.530       69
   20.545       68
   20.560       86
   20.575       89
   20.590       93
   20.605       76
   20.620       86
   20.635       61
   20.650       64
   20.665       69
   20.680       64
   20.695       78
   20.710       76
   20.725       83
   20.740      107
   20.755      132
   20.770      136
   20.785      152
   20.800      183
   20.815      173
   20.830      161
   20.845      168
   20.860      181
   20.875      176
   20.890      176
   20.905      133
   20.920       99
   20.935       90
   20.950       75
   20.965       80
   20.980       76
   20.995       75
   21.010       83
   21.025       57
   21.040       58
   21.055       67
   21.070       64
   21.085       64
   21.100       63
   21.115       65
   21.130       74
   21.145       70
   21.160       75
   21.175       70
   21.190       81
   21.205       84
   21.220       92
   21.235       87
   21.250       97
   21.265       87
   21.280       79
   21.295       66
   21.310       58
   21.325       61
   21.340       57
   21.355       55
   21.370       58
   21.385       53
   21.400       62
   21.415       58
   21.430       68
   21.445       70
   21.460       70
   21.475       68
   21.490       73
   21.505       86
   21.520       96
   21.535      116
   21.550      148
   21.565      162
   21.580      190
   21.595      183
   21.610      185
   21.625      167
   21.640      146
   21.655      124
   21.670      116
   21.685      132
   21.700      150
   21.715      166
   21.730      230
   21.745      297
   21.760      381
   21.775      477
   21.790      541
   21.805      533
   21.820      424
   21.835      315
   21.850      221
   21.865      143
   21.880      145
   21.895      131
   21.910      142
   21.925      131
   21.940       95
   21.955       82
   21.970       86
   21.985       64
   22.000       70
   22.015       61
   22.030       67
   22.045       65
   22.060       53
   22.075       58
   22.090       54
   22.105       51
   22.120       62
   22.135       63
   22.150       69
   22.165       69
   22.180       64
   22.195       62
   22.210       72
   22.225       79
   22.240       79
   22.255       74
   22.270       89
   22.285       92
   22.300       80
   22.315       73
   22.330       78
   22.345       76
   22.360       91
   22.375      120
   22.390      146
   22.405      125
   22.420      105
   22.435      107
   22.450       82
   22.465       69
   22.480       64
   22.495       66
   22.510       88
   22.525       98
   22.540      105
   22.555      124
   22.570      144
   22.585      170
   22.600      181
   22.615      171
   22.630      184
   22.645      188
   22.660      131
   22.675       92
   22.690       90
   22.705       97
   22.720      103
   22.735      127
   22.750      159
   22.765      155
   22.780      167
   22.795      181
   22.810      202
   22.825      209
   22.840      207
   22.855      184
   22.870      198
   22.885      171
   22.900      153
   22.915      132
   22.930       96
   22.945       93
   22.960       85
   22.975       78
   22.990       74
   23.005       73
   23.020       83
   23.035       98
   23.050      104
   23.065      114
   23.080      106
   23.095      100
   23.110       84
   23.125       86
   23.140      110
   23.155      101
   23.170      116
   23.185      116
   23.200      128
   23.215      113
   23.230       96
   23.245       77
   23.260       78
   23.275       76
   23.290       62
   23.305       68
   23.320       63
   23.335       58
   23.350       72
   23.365       73
   23.380       63
   23.395       75
   23.410       97
   23.425       91
   23.440       60
   23.455       52
   23.470       67
   23.485       56
   23.500       47
   23.515       44
   23.530       53
   23.545       54
   23.560       45
   23.575       55
   23.590       57
   23.605       63
   23.620       51
   23.635       52
   23.650       50
   23.665       56
   23.680       67
   23.695       54
   23.710       64
   23.725       60
   23.740       58
   23.755       55
   23.770       55
   23.785       59
   23.800       68
   23.815       67
   23.830       71
   23.845       67
   23.860       75
   23.875       72
   23.890       68
   23.905       66
   23.920       70
   23.935       68
   23.950       94
   23.965      104
   23.980      109
   23.995      112
   24.010      126
   24.025       96
   24.040       76
   24.055       68
   24.070       75
   24.085       52
   24.100       53
   24.115       59
   24.130       54
   24.145       68
   24.160       81
   24.175       81
   24.190       83
   24.205      102
   24.220      131
   24.235      112
   24.250      113
   24.265       94
   24.280       80
   24.295       73
   24.310       76
   24.325       59
   24.340       58
   24.355       58
   24.370       74
   24.385       73
   24.400       76
   24.415       70
   24.430       73
   24.445       68
   24.460       71
   24.475       73
   24.490       86
   24.505       75
   24.520       70
   24.535       84
   24.550       94
   24.565       92
   24.580      101
   24.595       80
   24.610       78
   24.625      102
   24.640       91
   24.655       96
   24.670       83
   24.685       75
   24.700       66
   24.715       73
   24.730       75
   24.745       85
   24.760       61
   24.775       61
   24.790       63
   24.805       62
   24.820       53
   24.835       52
   24.850       61
   24.865       68
   24.880       69
   24.895       82
   24.910       75
   24.925      117
   24.940      113
   24.955      120
   24.970      120
   24.985      105
   25.000       98
   25.015       92
   25.030       78
   25.045       65
   25.060       77
   25.075       84
   25.090       78
   25.105       78
   25.120       88
   25.135       96
   25.150       90
   25.165      106
   25.180      102
   25.195       89
   25.210       85
   25.225       76
   25.240       59
   25.255       71
   25.270       65
   25.285       58
   25.300       55
   25.315       57
   25.330       89
   25.345       86
   25.360       80
   25.375      103
   25.390      121
   25.405      125
   25.420      109
   25.435      110
   25.450       92
   25.465       94
   25.480       83
   25.495       76
   25.510       76
   25.525       77
   25.540       79
   25.555       88
   25.570      106
   25.585      104
   25.600      131
   25.615      138
   25.630      174
   25.645      182
   25.660      194
   25.675      195
   25.690      166
   25.705      138
   25.720      109
   25.735       89
   25.750       91
   25.765       77
   25.780       94
   25.795      103
   25.810      114
   25.825      119
   25.840      124
   25.855      142
   25.870      155
   25.885      139
   25.900      126
   25.915      100
   25.930       85
   25.945       87
   25.960       75
   25.975       87
   25.990       82
   26.005       84
   26.020       81
   26.035       77
   26.050       79
   26.065       84
   26.080       83
   26.095       91
   26.110      110
   26.125      116
   26.140      117
   26.155      121
   26.170       93
   26.185       88
   26.200       76
   26.215       67
   26.230       72
   26.245       62
   26.260       67
   26.275       76
   26.290       69
   26.305       67
   26.320       75
   26.335       75
   26.350       74
   26.365       67
   26.380       74
   26.395       70
   26.410       52
   26.425       57
   26.440       67
   26.455       57
   26.470       48
   26.485       58
   26.500       58
   26.515       66
   26.530       73
   26.545       53
   26.560       58
   26.575       64
   26.590       84
   26.605      101
   26.620      103
   26.635      104
   26.650       76
   26.665       69
   26.680       70
   26.695       74
   26.710       54
   26.725       57
   26.740       40
   26.755       62
   26.770       72
   26.785       61
   26.800       81
   26.815       99
   26.830       91
   26.845      104
   26.860      124
   26.875      146
   26.890      145
   26.905      144
   26.920      138
   26.935      143
   26.950      137
   26.965      153
   26.980      157
   26.995      125
   27.010      100
   27.025       91
   27.040       79
   27.055       72
   27.070       84
   27.085       83
   27.100       82
   27.115       72
   27.130       68
   27.145       75
   27.160       60
   27.175       87
   27.190       95
   27.205       71
   27.220       77
   27.235       90
   27.250       75
   27.265       66
   27.280       77
   27.295       78
   27.310       66
   27.325       74
   27.340       74
   27.355       91
   27.370       86
   27.385       88
   27.400       92
   27.415       99
   27.430       93
   27.445      101
   27.460      124
   27.475      128
   27.490      131
   27.505      136
   27.520      142
   27.535      176
   27.550      153
   27.565      165
   27.580      156
   27.595      158
   27.610      151
   27.625      154
   27.640      154
   27.655      146
   27.670      113
   27.685      109
   27.700      105
   27.715       95
   27.730       86
   27.745       76
   27.760       75
   27.775       83
   27.790       75
   27.805       89
   27.820      100
   27.835      124
   27.850      138
   27.865      130
   27.880      128
   27.895      109
   27.910       99
   27.925       79
   27.940       86
   27.955       86
   27.970       70
   27.985       67
   28.000       66
   28.015       75
   28.030       65
   28.045       63
   28.060       70
   28.075       78
   28.090       85
   28.105       93
   28.120       78
   28.135       87
   28.150       85
   28.165       82
   28.180       97
   28.195       88
   28.210       85
   28.225       65
   28.240       68
   28.255       79
   28.270       78
   28.285       98
   28.300       98
   28.315      104
   28.330      100
   28.345       88
   28.360       86
   28.375       80
   28.390       78
   28.405       90
   28.420       90
   28.435       69
   28.450       71
   28.465       73
   28.480       70
   28.495       64
   28.510       66
   28.525       59
   28.540       62
   28.555       53
   28.570       64
   28.585       58
   28.600       64
   28.615       75
   28.630       77
   28.645       79
   28.660       89
   28.675       76
   28.690       81
   28.705       77
   28.720       81
   28.735       87
   28.750       86
   28.765       76
   28.780       71
   28.795       67
   28.810       77
   28.825       80
   28.840       76
   28.855       93
   28.870      105
   28.885       91
   28.900       99
   28.915      109
   28.930      110
   28.945      109
   28.960       84
   28.975       89
   28.990       90
   29.005      114
   29.020      121
   29.035      101
   29.050      103
   29.065       88
   29.080       92
   29.095       97
   29.110       81
   29.125       85
   29.140       86
   29.155       84
   29.170       76
   29.185       76
   29.200       81
   29.215       94
   29.230       80
   29.245       74
   29.260       93
   29.275       86
   29.290       83
   29.305       79
   29.320       58
   29.335       59
   29.350       73
   29.365       70
   29.380       73
   29.395       85
   29.410       68
   29.425       71
   29.440       73
   29.455       77
   29.470       79
   29.485       71
   29.500       84
   29.515       77
   29.530       83
   29.545       84
   29.560       90
   29.575       93
   29.590       83
   29.605       97
   29.620       97
   29.635      100
   29.650      117
   29.665      119
   29.680      113
   29.695      115
   29.710      103
   29.725       92
   29.740       82
   29.755       77
   29.770       89
   29.785       84
   29.800       72
   29.815       63
   29.830       67
   29.845       83
   29.860       74
   29.875       58
   29.890       56
   29.905       67
   29.920       50
   29.935       69
   29.950       61
   29.965       57
   29.980       81
   29.995       71
   30.010       69
   30.025       58
   30.040       58
   30.055       68
   30.070       72
   30.085       72
   30.100       76
   30.115       73
   30.130       62
   30.145       65
   30.160       65
   30.175       54
   30.190       64
   30.205       73
   30.220       47
   30.235       61
   30.250       71
   30.265       59
   30.280       67
   30.295       80
   30.310       64
   30.325       59
   30.340       69
   30.355       72
   30.370       64
   30.385       77
   30.400       70
   30.415       76
   30.430       67
   30.445       74
   30.460       63
   30.475       83
   30.490       91
   30.505       77
   30.520       95
   30.535       91
   30.550       92
   30.565       97
   30.580       97
   30.595       93
   30.610      112
   30.625      109
   30.640       81
   30.655       73
   30.670       82
   30.685       75
   30.700       61
   30.715       60
   30.730       81
   30.745       59
   30.760       59
   30.775       66
   30.790       73
   30.805       57
   30.820       60
   30.835       54
   30.850       63
   30.865       94
   30.880       80
   30.895       93
   30.910       95
   30.925      117
   30.940      102
   30.955       98
   30.970       99
   30.985      110
   31.000      109
   31.015       92
   31.030       93
   31.045       81
   31.060       65
   31.075       62
   31.090       79
   31.105       72
   31.120       69
   31.135       59
   31.150       72
   31.165       79
   31.180       72
   31.195       77
   31.210       88
   31.225       73
   31.240       71
   31.255       63
   31.270       85
   31.285       96
   31.300      100
   31.315       99
   31.330       93
   31.345       81
   31.360       82
   31.375       81
   31.390       77
   31.405       78
   31.420       71
   31.435       75
   31.450       79
   31.465       67
   31.480       78
   31.495       83
   31.510       96
   31.525       89
   31.540       91
   31.555       98
   31.570       91
   31.585      104
   31.600       94
   31.615       80
   31.630       75
   31.645       87
   31.660       91
   31.675       86
   31.690       99
   31.705       96
   31.720       98
   31.735      101
   31.750       94
   31.765      106
   31.780       93
   31.795       92
   31.810       86
   31.825       98
   31.840      110
   31.855       98
   31.870      102
   31.885       92
   31.900       94
   31.915       82
   31.930       79
   31.945       73
   31.960       84
   31.975       82
   31.990       76
   32.005       89
   32.020       79
   32.035       80
   32.050       76
   32.065       81
   32.080       83
   32.095       96
   32.110       95
   32.125       84
   32.140       76
   32.155       83
   32.170       77
   32.185       69
   32.200       61
   32.215       60
   32.230       66
   32.245       69
   32.260       66
   32.275       75
   32.290       85
   32.305       70
   32.320       62
   32.335       70
   32.350       62
   32.365       71
   32.380       66
   32.395       64
   32.410       64
   32.425       60
   32.440       61
   32.455       55
   32.470       61
   32.485       62
   32.500       61
   32.515       66
   32.530       69
   32.545       53
   32.560       67
   32.575       53
   32.590       77
   32.605       73
   32.620       73
   32.635       70
   32.650       56
   32.665       49
   32.680       60
   32.695       71
   32.710       56
   32.725       59
   32.740       58
   32.755       81
   32.770       75
   32.785       58
   32.800       63
   32.815       68
   32.830       74
   32.845       74
   32.860       77
   32.875       77
   32.890      102
   32.905      100
   32.920       92
   32.935      118
   32.950      110
   32.965      102
   32.980      105
   32.995       99
   33.010       82
   33.025       83
   33.040       87
   33.055       81
   33.070       78
   33.085       67
   33.100       70
   33.115       75
   33.130       83
   33.145       79
   33.160       78
   33.175       64
   33.190       84
   33.205       71
   33.220       62
   33.235       64
   33.250       84
   33.265       67
   33.280       68
   33.295       65
   33.310       73
   33.325       85
   33.340       87
   33.355       80
   33.370       94
   33.385       78
   33.400       80
   33.415       82
   33.430       89
   33.445      100
   33.460      110
   33.475      103
   33.490      118
   33.505       95
   33.520      100
   33.535       94
   33.550       92
   33.565       99
   33.580       93
   33.595       97
   33.610       94
   33.625       88
   33.640       79
   33.655       80
   33.670       58
   33.685       72
   33.700       81
   33.715       77
   33.730       83
   33.745       90
   33.760       97
   33.775      104
   33.790      124
   33.805      108
   33.820      111
   33.835       99
   33.850       88
   33.865       89
   33.880       78
   33.895       79
   33.910       90
   33.925       84
   33.940      102
   33.955       90
   33.970       97
   33.985       95
   34.000       92
   34.015       85
   34.030       74
   34.045       89
   34.060       89
   34.075       86
   34.090       74
   34.105       81
   34.120       76
   34.135       81
   34.150       79
   34.165       80
   34.180       65
   34.195       71
   34.210       75
   34.225       73
   34.240       58
   34.255       60
   34.270       62
   34.285       65
   34.300       63
   34.315       53
   34.330       70
   34.345       64
   34.360       64
   34.375       72
   34.390       62
   34.405       67
   34.420       77
   34.435       70
   34.450       78
   34.465       99
   34.480       78
   34.495       88
   34.510       83
   34.525       85
   34.540       75
   34.555       74
   34.570       75
   34.585       65
   34.600       62
   34.615       64
   34.630       50
   34.645       58
   34.660       73
   34.675       66
   34.690       57
   34.705       60
   34.720       62
   34.735       64
   34.750       58
   34.765       61
   34.780       70
   34.795       65
   34.810       59
   34.825       64
   34.840       69
   34.855       68
   34.870       71
   34.885       65
   34.900       73
   34.915       65
   34.930       66
   34.945       68
   34.960       74
   34.975       68
   34.990       69
   35.005       75
   35.020       68
   35.035       82
   35.050       72
   35.065       75
   35.080       76
   35.095       76
   35.110       90
   35.125       80
   35.140       76
   35.155       84
   35.170       86
   35.185       97
   35.200       81
   35.215       97
   35.230       92
   35.245       97
   35.260       86
   35.275       90
   35.290       90
   35.305       97
   35.320       93
   35.335      100
   35.350       87
   35.365       92
   35.380      116
   35.395      111
   35.410      101
   35.425       96
   35.440      101
   35.455       97
   35.470       96
   35.485       95
   35.500      113
   35.515      102
   35.530      107
   35.545      106
   35.560      120
   35.575      128
   35.590      110
   35.605       96
   35.620       88
   35.635       75
   35.650       87
   35.665       80
   35.680       83
   35.695       86
   35.710       85
   35.725       63
   35.740       85
   35.755       78
   35.770       69
   35.785       61
   35.800       62
   35.815       75
   35.830       65
   35.845       54
   35.860       57
   35.875       70
   35.890       77
   35.905       68
   35.920       60
   35.935       55
   35.950       77
   35.965       66
   35.980       59
   35.995       54
   36.010       56
   36.025       65
   36.040       67
   36.055       69
   36.070       65
   36.085       67
   36.100       67
   36.115       58
   36.130       60
   36.145       70
   36.160       63
   36.175       68
   36.190       69
   36.205       75
   36.220       75
   36.235       70
   36.250       79
   36.265       78
   36.280       72
   36.295       70
   36.310       59
   36.325       57
   36.340       59
   36.355       62
   36.370       70
   36.385       75
   36.400       66
   36.415       58
   36.430       65
   36.445       71
   36.460       65
   36.475       76
   36.490       80
   36.505       77
   36.520       74
   36.535       68
   36.550       71
   36.565       62
   36.580       55
   36.595       54
   36.610       68
   36.625       63
   36.640       70
   36.655       72
   36.670       71
   36.685       69
   36.700       84
   36.715      103
   36.730       94
   36.745       71
   36.760       67
   36.775       73
   36.790       69
   36.805       70
   36.820       63
   36.835       69
   36.850       69
   36.865       81
   36.880       65
   36.895       60
   36.910       59
   36.925       66
   36.940       59
   36.955       69
   36.970       74
   36.985       67
   37.000       73
   37.015       77
   37.030       67
   37.045       81
   37.060       73
   37.075       81
   37.090       82
   37.105       67
   37.120       62
   37.135       74
   37.150       61
   37.165       68
   37.180       79
   37.195       70
   37.210       79
   37.225       87
   37.240       94
   37.255       90
   37.270       91
   37.285       76
   37.300       83
   37.315       76
   37.330       56
   37.345       65
   37.360       66
   37.375       55
   37.390       55
   37.405       67
   37.420       66
   37.435       56
   37.450       63
   37.465       62
   37.480       56
   37.495       57
   37.510       59
   37.525       63
   37.540       70
   37.555       61
   37.570       68
   37.585       58
   37.600       65
   37.615       59
   37.630       63
   37.645       62
   37.660       74
   37.675       77
   37.690       62
   37.705       68
   37.720       57
   37.735       55
   37.750       56
   37.765       56
   37.780       57
   37.795       69
   37.810       74
   37.825       71
   37.840       59
   37.855       58
   37.870       60
   37.885       68
   37.900       71
   37.915       63
   37.930       67
   37.945       68
   37.960       78
   37.975       81
   37.990       79
   38.005       73
   38.020       67
   38.035       59
   38.050       62
   38.065       61
   38.080       58
   38.095       63
   38.110       57
   38.125       48
   38.140       64
   38.155       68
   38.170       63
   38.185       77
   38.200       82
   38.215       65
   38.230       55
   38.245       61
   38.260       60
   38.275       61
   38.290       62
   38.305       64
   38.320       74
   38.335       86
   38.350       94
   38.365       95
   38.380       90
   38.395       93
   38.410       82
   38.425       77
   38.440       65
   38.455       63
   38.470       66
   38.485       50
   38.500       54
   38.515       60
   38.530       69
   38.545       77
   38.560       69
   38.575       68
   38.590       67
   38.605       83
   38.620       67
   38.635       70
   38.650       77
   38.665       83
   38.680       76
   38.695       57
   38.710       60
   38.725       71
   38.740       72
   38.755       66
   38.770       73
   38.785       64
   38.800       70
   38.815       78
   38.830       84
   38.845       74
   38.860       69
   38.875       64
   38.890       64
   38.905       75
   38.920       76
   38.935       79
   38.950       76
   38.965       72
   38.980       69
   38.995       74
   39.010       62
   39.025       52
   39.040       65
   39.055       69
   39.070       62
   39.085       66
   39.100       56
   39.115       55
   39.130       67
   39.145       58
   39.160       62
   39.175       60
   39.190       49
   39.205       60
   39.220       62
   39.235       62
   39.250       58
   39.265       54
   39.280       72
   39.295       59
   39.310       52
   39.325       52
   39.340       47
   39.355       54
   39.370       57
   39.385       55
   39.400       60
   39.415       59
   39.430       64
   39.445       59
   39.460       61
   39.475       45
   39.490       51
   39.505       64
   39.520       61
   39.535       63
   39.550       59
   39.565       47
   39.580       55
   39.595       53
   39.610       50
   39.625       59
   39.640       59
   39.655       66
   39.670       67
   39.685       52
   39.700       61
   39.715       60
   39.730       64
   39.745       75
   39.760       70
   39.775       67
   39.790       78
   39.805       70
   39.820       83
   39.835       73
   39.850       66
   39.865       68
   39.880       64
   39.895       60
   39.910       66
   39.925       64
   39.940       84
   39.955       60
   39.970       56
   39.985       56
   40.000       58
   40.015       62
   40.030       68
   40.045       59
   40.060       60
   40.075       69
   40.090       57
   40.105       51
   40.120       66
   40.135       61
   40.150       57
   40.165       50
   40.180       64
   40.195       66
   40.210       55
   40.225       59
   40.240       52
   40.255       57
   40.270       64
   40.285       63
   40.300       69
   40.315       64
   40.330       68
   40.345       69
   40.360       78
   40.375       70
   40.390       64
   40.405       69
   40.420       79
   40.435       66
   40.450       73
   40.465       81
   40.480       71
   40.495       75
   40.510       59
   40.525       77
   40.540       63
   40.555       66
   40.570       50
   40.585       62
   40.600       50
   40.615       50
   40.630       63
   40.645       62
   40.660       72
   40.675       73
   40.690       67
   40.705       68
   40.720       78
   40.735       72
   40.750       60
   40.765       65
   40.780       72
   40.795       62
   40.810       75
   40.825       83
   40.840       74
   40.855       67
   40.870       59
   40.885       63
   40.900       57
   40.915       67
   40.930       64
   40.945       69
   40.960       60
   40.975       55
   40.990       57
   41.005       52
   41.020       64
   41.035       55
   41.050       55
   41.065       58
   41.080       68
   41.095       59
   41.110       50
   41.125       60
   41.140       63
   41.155       66
   41.170       50
   41.185       54
   41.200       51
   41.215       57
   41.230       59
   41.245       62
   41.260       58
   41.275       55
   41.290       60
   41.305       54
   41.320       48
   41.335       52
   41.350       49
   41.365       62
   41.380       62
   41.395       63
   41.410       60
   41.425       55
   41.440       60
   41.455       62
   41.470       70
   41.485       67
   41.500       58
   41.515       57
   41.530       50
   41.545       55
   41.560       54
   41.575       63
   41.590       69
   41.605       73
   41.620       59
   41.635       60
   41.650       61
   41.665       54
   41.680       54
   41.695       65
   41.710       53
   41.725       57
   41.740       42
   41.755       61
   41.770       73
   41.785       70
   41.800       61
   41.815       68
   41.830       69
   41.845       56
   41.860       55
   41.875       73
   41.890       68
   41.905       56
   41.920       64
   41.935       55
   41.950       60
   41.965       57
   41.980       67
   41.995       80
   42.010       69
   42.025       55
   42.040       63
   42.055       66
   42.070       62
   42.085       56
   42.100       64
   42.115       65
   42.130       65
   42.145       65
   42.160       70
   42.175       71
   42.190       70
   42.205       56
   42.220       52
   42.235       61
   42.250       48
   42.265       50
   42.280       60
   42.295       73
   42.310       59
   42.325       67
   42.340       63
   42.355       59
   42.370       59
   42.385       68
   42.400       56
   42.415       55
   42.430       54
   42.445       60
   42.460       81
   42.475       61
   42.490       55
   42.505       52
   42.520       52
   42.535       57
   42.550       57
   42.565       61
   42.580       61
   42.595       55
   42.610       58
   42.625       52
   42.640       49
   42.655       47
   42.670       45
   42.685       53
   42.700       57
   42.715       44
   42.730       54
   42.745       54
   42.760       63
   42.775       61
   42.790       57
   42.805       58
   42.820       56
   42.835       63
   42.850       51
   42.865       53
   42.880       53
   42.895       55
   42.910       59
   42.925       55
   42.940       54
   42.955       45
   42.970       53
   42.985       65
   43.000       62
   43.015       45
   43.030       57
   43.045       64
   43.060       68
   43.075       62
   43.090       72
   43.105       62
   43.120       52
   43.135       72
   43.150       68
   43.165       59
   43.180       56
   43.195       57
   43.210       62
   43.225       60
   43.240       64
   43.255       66
   43.270       60
   43.285       55
   43.300       51
   43.315       66
   43.330       52
   43.345       55
   43.360       53
   43.375       59
   43.390       52
   43.405       57
   43.420       68
   43.435       51
   43.450       57
   43.465       46
   43.480       49
   43.495       68
   43.510       71
   43.525       50
   43.540       52
   43.555       59
   43.570       56
   43.585       64
   43.600       59
   43.615       59
   43.630       65
   43.645       48
   43.660       48
   43.675       54
   43.690       58
   43.705       55
   43.720       62
   43.735       65
   43.750       58
   43.765       57
   43.780       62
   43.795       58
   43.810       60
   43.825       57
   43.840       59
   43.855       58
   43.870       61
   43.885       64
   43.900       65
   43.915       63
   43.930       53
   43.945       53
   43.960       63
   43.975       60
   43.990       54
   44.005       54
   44.020       62
   44.035       67
   44.050       72
   44.065       75
   44.080       66
   44.095       65
   44.110       62
   44.125       65
   44.140       66
   44.155       56
   44.170       75
   44.185       74
   44.200       63
   44.215       70
   44.230       61
   44.245       60
   44.260       62
   44.275       67
   44.290       55
   44.305       60
   44.320       63
   44.335       56
   44.350       60
   44.365       53
   44.380       59
   44.395       57
   44.410       52
   44.425       66
   44.440       66
   44.455       55
   44.470       59
   44.485       56
   44.500       55
   44.515       64
   44.530       59
   44.545       57
   44.560       51
   44.575       58
   44.590       62
   44.605       63
   44.620       61
   44.635       69
   44.650       69
   44.665       69
   44.680       68
   44.695       64
   44.710       82
   44.725       63
   44.740       72
   44.755       67
   44.770       68
   44.785       63
   44.800       69
   44.815       77
   44.830       57
   44.845       62
   44.860       48
   44.875       51
   44.890       56
   44.905       54
   44.920       48
   44.935       54
   44.950       62
   44.965       62
   44.980       62
   44.995       63
   45.010       70
   45.025       69
   45.040       71
   45.055       70
   45.070       69
   45.085       64
   45.100       62
   45.115       79
   45.130       81
   45.145       72
   45.160       64
   45.175       63
   45.190       79
   45.205       65
   45.220       70
   45.235       69
   45.250       63
   45.265       56
   45.280       58
   45.295       60
   45.310       58
   45.325       50
   45.340       57
   45.355       46
   45.370       54
   45.385       50
   45.400       57
   45.415       62
   45.430       50
   45.445       51
   45.460       58
   45.475       60
   45.490       64
   45.505       59
   45.520       60
   45.535       58
   45.550       65
   45.565       70
   45.580       59
   45.595       62
   45.610       49
   45.625       51
   45.640       55
   45.655       62
   45.670       66
   45.685       52
   45.700       59
   45.715       50
   45.730       54
   45.745       54
   45.760       71
   45.775       59
   45.790       62
   45.805       63
   45.820       51
   45.835       49
   45.850       55
   45.865       57
   45.880       53
   45.895       72
   45.910       56
   45.925       52
   45.940       64
   45.955       69
   45.970       49
   45.985       60
