    4.000       51
    4.015       55
    4.030       52
    4.045       49
    4.060       54
    4.075       50
    4.090       48
    4.105       51
    4.120       62
    4.135       42
    4.150       50
    4.165       51
    4.180       55
    4.195       50
    4.210       54
    4.225       51
    4.240       41
    4.255       49
    4.270       59
    4.285       55
    4.300       51
    4.315       48
    4.330       52
    4.345       48
    4.360       43
    4.375       43
    4.390       59
    4.405       45
    4.420       57
    4.435       49
    4.450       64
    4.465       53
    4.480       50
    4.495       51
    4.510       53
    4.525       49
    4.540       51
    4.555       44
    4.570       53
    4.585       47
    4.600       52
    4.615       52
    4.630       43
    4.645       45
    4.660       40
    4.675       46
    4.690       43
    4.705       53
    4.720       63
    4.735       59
    4.750       47
    4.765       54
    4.780       55
    4.795       44
    4.810       49
    4.825       56
    4.840       45
    4.855       36
    4.870       57
    4.885       55
    4.900       43
    4.915       50
    4.930       56
    4.945       50
    4.960       47
    4.975       50
    4.990       57
    5.005       55
    5.020       55
    5.035       50
    5.050       43
    5.065       49
    5.080       62
    5.095       52
    5.110       47
    5.125       45
    5.140       52
    5.155       50
    5.170       54
    5.185       48
    5.200       45
    5.215       38
    5.230       49
    5.245       49
    5.260       51
    5.275       51
    5.290       50
    5.305       51
    5.320       53
    5.335       59
    5.350       51
    5.365       49
    5.380       54
    5.395       48
    5.410       45
    5.425       44
    5.440       47
    5.455       55
    5.470       48
    5.485       51
    5.500       40
    5.515       40
    5.530       39
    5.545       46
    5.560       51
    5.575       41
    5.590       41
    5.605       41
    5.620       50
    5.635       45
    5.650       49
    5.665       50
    5.680       50
    5.695       52
    5.710       47
    5.725       40
    5.740       43
    5.755       42
    5.770       37
    5.785       51
    5.800       61
    5.815       40
    5.830       55
    5.845       44
    5.860       49
    5.875       49
    5.890       52
    5.905       57
    5.920       45
    5.935       52
    5.950       51
    5.965       57
    5.980       49
    5.995       57
    6.010       53
    6.025       55
    6.040       49
    6.055       55
    6.070       43
    6.085       45
    6.100       47
    6.115       48
    6.130       51
    6.145       57
    6.160       38
    6.175       48
    6.190       54
    6.205       47
    6.220       47
    6.235       48
    6.250       54
    6.265       57
    6.280       62
    6.295       72
    6.310       77
    6.325       72
    6.340       56
    6.355       60
    6.370       75
    6.385       79
    6.400       83
    6.415       83
    6.430       76
    6.445       77
    6.460       85
    6.475      108
    6.490       97
    6.505      115
    6.520      131
    6.535      136
    6.550      153
    6.565      184
    6.580      208
    6.595      193
    6.610      179
    6.625      196
    6.640      202
    6.655      155
    6.670       89
    6.685       64
    6.700       59
    6.715       58
    6.730       42
    6.745       56
    6.760       53
    6.775       49
    6.790       57
    6.805       61
    6.820       52
    6.835       48
    6.850       54
    6.865       57
    6.880       52
    6.895       57
    6.910       48
    6.925       57
    6.940       72
    6.955       50
    6.970       67
    6.985       56
    7.000       54
    7.015       57
    7.030       63
    7.045       62
    7.060       54
    7.075       56
    7.090       59
    7.105       78
    7.120       82
    7.135       91
    7.150       95
    7.165       80
    7.180       71
    7.195       60
    7.210       52
    7.225       41
    7.240       47
    7.255       50
    7.270       54
    7.285       58
    7.300       47
    7.315       63
    7.330       60
    7.345       53
    7.360       48
    7.375       50
    7.390       43
    7.405       52
    7.420       50
    7.435       45
    7.450       43
    7.465       37
    7.480       39
    7.495       45
    7.510       48
    7.525       45
    7.540       48
    7.555       38
    7.570       52
    7.585       48
    7.600       48
    7.615       55
    7.630       46
    7.645       42
    7.660       43
    7.675       52
    7.690       57
    7.705       50
    7.720       40
    7.735       37
    7.750       41
    7.765       44
    7.780       49
    7.795       46
    7.810       46
    7.825       51
    7.840       45
    7.855       52
    7.870       52
    7.885       49
    7.900       51
    7.915       48
    7.930       45
    7.945       48
    7.960       48
    7.975       45
    7.990       48
    8.005       63
    8.020       56
    8.035       50
    8.050       45
    8.065       38
    8.080       35
    8.095       32
    8.110       40
    8.125       43
    8.140       49
    8.155       43
    8.170       37
    8.185       43
    8.200       42
    8.215       45
    8.230       46
    8.245       42
    8.260       54
    8.275       56
    8.290       49
    8.305       41
    8.320       37
    8.335       41
    8.350       44
    8.365       48
    8.380       56
    8.395       49
    8.410       54
    8.425       46
    8.440       55
    8.455       54
    8.470       61
    8.485       58
    8.500       45
    8.515       53
    8.530       54
    8.545       62
    8.560       54
    8.575       44
    8.590       43
    8.605       38
    8.620       42
    8.635       42
    8.650       38
    8.665       44
    8.680       51
    8.695       56
    8.710       47
    8.725       60
    8.740       39
    8.755       59
    8.770       53
    8.785       55
    8.800       50
    8.815       48
    8.830       40
    8.845       53
    8.860       49
    8.875       47
    8.890       68
    8.905       44
    8.920       55
    8.935       56
    8.950       42
    8.965       50
    8.980       65
    8.995       56
    9.010       54
    9.025       56
    9.040       47
    9.055       51
    9.070       47
    9.085       47
    9.100       53
    9.115       54
    9.130       46
    9.145       42
    9.160       38
    9.175       43
    9.190       42
    9.205       55
    9.220       55
    9.235       43
    9.250       52
    9.265       56
    9.280       51
    9.295       52
    9.310       53
    9.325       71
    9.340       68
    9.355       55
    9.370       64
    9.385       57
    9.400       62
    9.415       54
    9.430       54
    9.445       56
    9.460       48
    9.475       53
    9.490       50
    9.505       48
    9.520       50
    9.535       54
    9.550       52
    9.565       46
    9.580       53
    9.595       51
    9.610       44
    9.625       44
    9.640       52
    9.655       57
    9.670       50
    9.685       51
    9.700       41
    9.715       46
    9.730       57
    9.745       53
    9.760       51
    9.775       58
    9.790       64
    9.805       53
    9.820       54
    9.835       49
    9.850       53
    9.865       58
    9.880       60
    9.895       56
    9.910       47
    9.925       43
    9.940       60
    9.955       40
    9.970       45
    9.985       61
   10.000       55
   10.015       57
   10.030       53
   10.045       55
   10.060       56
   10.075       51
   10.090       57
   10.105       57
   10.120       56
   10.135       62
   10.150       51
   10.165       44
   10.180       54
   10.195       57
   10.210       49
   10.225       53
   10.240       56
   10.255       58
   10.270       68
   10.285       65
   10.300       60
   10.315       68
   10.330       64
   10.345       52
   10.360       64
   10.375       79
   10.390       75
   10.405       82
   10.420       81
   10.435       84
   10.450       80
   10.465       66
   10.480       63
   10.495       47
   10.510       57
   10.525       49
   10.540       54
   10.555       54
   10.570       57
   10.585       55
   10.600       57
   10.615       60
   10.630       60
   10.645       60
   10.660       67
   10.675       72
   10.690       79
   10.705       87
   10.720       90
   10.735       90
   10.750       88
   10.765       96
   10.780      106
   10.795      109
   10.810      136
   10.825      130
   10.840      107
   10.855       78
   10.870       66
   10.885       55
   10.900       54
   10.915       59
   10.930       54
   10.945       59
   10.960       57
   10.975       52
   10.990       54
   11.005       62
   11.020       51
   11.035       50
   11.050       59
   11.065       60
   11.080       66
   11.095       69
   11.110       73
   11.125       75
   11.140       75
   11.155       76
   11.170       95
   11.185      107
   11.200       96
   11.215       89
   11.230       76
   11.245       65
   11.260       64
   11.275       61
   11.290       58
   11.305       59
   11.320       63
   11.335       57
   11.350       62
   11.365       68
   11.380       67
   11.395       74
   11.410       66
   11.425       52
   11.440       55
   11.455       49
   11.470       46
   11.485       49
   11.500       40
   11.515       48
   11.530       48
   11.545       45
   11.560       57
   11.575       51
   11.590       57
   11.605       60
   11.620       53
   11.635       41
   11.650       50
   11.665       58
   11.680       54
   11.695       63
   11.710       51
   11.725       59
   11.740       67
   11.755       75
   11.770       61
   11.785       63
   11.800       72
   11.815       76
   11.830       64
   11.845       77
   11.860       70
   11.875       64
   11.890       55
   11.905       51
   11.920       62
   11.935       66
   11.950       50
   11.965       52
   11.980       79
   11.995       64
   12.010       73
   12.025       56
   12.040       62
   12.055       61
   12.070       63
   12.085       53
   12.100       56
   12.115       57
   12.130       62
   12.145       57
   12.160       60
   12.175       58
   12.190       63
   12.205       66
   12.220       61
   12.235       50
   12.250       57
   12.265       59
   12.280       48
   12.295       56
   12.310       52
   12.325       59
   12.340       57
   12.355       55
   12.370       51
   12.385       60
   12.400       62
   12.415       68
   12.430       57
   12.445       89
   12.460       80
   12.475      102
   12.490       87
   12.505      113
   12.520      145
   12.535      172
   12.550      186
   12.565      216
   12.580      250
   12.595      338
   12.610      411
   12.625      451
   12.640      400
   12.655      324
   12.670      270
   12.685      278
   12.700      327
   12.715      336
   12.730      238
   12.745      183
   12.760      108
   12.775       86
   12.790       68
   12.805       79
   12.820       65
   12.835       63
   12.850       88
   12.865       97
   12.880       76
   12.895       72
   12.910       93
   12.925      102
   12.940      113
   12.955      118
   12.970      135
   12.985      166
   13.000      183
   13.015      222
   13.030      201
   13.045      171
   13.060      146
   13.075      172
   13.090      182
   13.105      200
   13.120      242
   13.135      285
   13.150      357
   13.165      437
   13.180      565
   13.195      597
   13.210      548
   13.225      496
   13.240      498
   13.255      474
   13.270      584
   13.285      756
   13.300     1071
   13.315     1036
   13.330      833
   13.345      553
   13.360      317
   13.375      146
   13.390      128
   13.405      118
   13.420      123
   13.435      136
   13.450      141
   13.465      147
   13.480      171
   13.495      209
   13.510      254
   13.525      254
   13.540      276
   13.555      321
   13.570      309
   13.585      276
   13.600      236
   13.615      151
   13.630       96
   13.645       77
   13.660       74
   13.675       70
   13.690       70
   13.705       75
   13.720       76
   13.735       74
   13.750       71
   13.765       91
   13.780       89
   13.795       87
   13.810      103
   13.825       99
   13.840       93
   13.855       76
   13.870       80
   13.885       71
   13.900       75
   13.915       71
   13.930       59
   13.945       52
   13.960       65
   13.975       73
   13.990       76
   14.005       62
   14.020       72
   14.035       72
   14.050       70
   14.065       66
   14.080       73
   14.095       70
   14.110       66
   14.125       73
   14.140       78
   14.155       83
   14.170       74
   14.185       80
   14.200       88
   14.215      105
   14.230      107
   14.245      113
   14.260      143
   14.275      165
   14.290      176
   14.305      155
   14.320      151
   14.335      160
   14.350      173
   14.365      173
   14.380      170
   14.395      154
   14.410      139
   14.425      153
   14.440      210
   14.455      237
   14.470      265
   14.485      266
   14.500      220
   14.515      164
   14.530      114
   14.545       78
   14.560       83
   14.575       76
   14.590       73
   14.605       58
   14.620       64
   14.635       66
   14.650       54
   14.665       70
   14.680       72
   14.695       65
   14.710       75
   14.725       64
   14.740       86
   14.755       78
   14.770       72
   14.785       61
   14.800       72
   14.815       70
   14.830       73
   14.845       84
   14.860       98
   14.875      104
   14.890       99
   14.905      118
   14.920      150
   14.935      163
   14.950      180
   14.965      252
   14.980      305
   14.995      329
   15.010      362
   15.025      421
   15.040      514
   15.055      678
   15.070      730
   15.085      635
   15.100      441
   15.115      284
   15.130      187
   15.145      123
   15.160      117
   15.175      122
   15.190      110
   15.205      133
   15.220      143
   15.235      154
   15.250      191
   15.265      220
   15.280      250
   15.295      241
   15.310      223
   15.325      184
   15.340      188
   15.355      174
   15.370      164
   15.385      144
   15.400      107
   15.415       86
   15.430       90
   15.445      103
   15.460      113
   15.475      119
   15.490      125
   15.505      141
   15.520      149
   15.535      205
   15.550      260
   15.565      272
   15.580      277
   15.595      245
   15.610      165
   15.625      127
   15.640      109
   15.655      126
   15.670      119
   15.685      134
   15.700      146
   15.715      170
   15.730      200
   15.745      227
   15.760      226
   15.775      203
   15.790      163
   15.805      123
   15.820       98
   15.835       81
   15.850       75
   15.865       77
   15.880       71
   15.895       79
   15.910       76
   15.925       87
   15.940       81
   15.955       84
   15.970      106
   15.985      126
   16.000      110
   16.015      138
   16.030      156
   16.045      173
   16.060      192
   16.075      268
   16.090      282
   16.105      303
   16.120      307
   16.135      203
   16.150      151
   16.165      103
   16.180      101
   16.195      101
   16.210      100
   16.225      114
   16.240      102
   16.255      135
   16.270      165
   16.285      195
   16.300      181
   16.315      214
   16.330      172
   16.345      213
   16.360      233
   16.375      314
   16.390      417
   16.405      439
   16.420      396
   16.435      316
   16.450      248
   16.465      221
   16.480      204
   16.495      241
   16.510      262
   16.525      327
   16.540      296
   16.555      256
   16.570      225
   16.585      179
   16.600      186
   16.615      201
   16.630      198
   16.645      250
   16.660      278
   16.675      310
   16.690      270
   16.705      246
   16.720      231
   16.735      258
   16.750      294
   16.765      273
   16.780      265
   16.795      258
   16.810      212
   16.825      161
   16.840      109
   16.855       91
   16.870      105
   16.885       93
   16.900       99
   16.915      107
   16.930      101
   16.945      118
   16.960      150
   16.975      169
   16.990      200
   17.005      207
   17.020      166
   17.035      139
   17.050      120
   17.065      110
   17.080      108
   17.095      115
   17.110      124
   17.125      151
   17.140      169
   17.155      206
   17.170      255
   17.185      254
   17.200      254
   17.215      240
   17.230      211
   17.245      157
   17.260      136
   17.275      124
   17.290      110
   17.305      127
   17.320      110
   17.335      118
   17.350      116
   17.365      118
   17.380      116
   17.395      138
   17.410      156
   17.425      174
   17.440      204
   17.455      223
   17.470      201
   17.485      147
   17.500      108
   17.515       84
   17.530       98
   17.545       94
   17.560      106
   17.575       94
   17.590      101
   17.605       98
   17.620      102
   17.635      123
   17.650      113
   17.665      115
   17.680       97
   17.695      100
   17.710      130
   17.725      114
   17.740      116
   17.755      104
   17.770      102
   17.785      105
   17.800       94
   17.815       78
   17.830       88
   17.845       86
   17.860       98
   17.875       79
   17.890       76
   17.905       69
   17.920       69
   17.935       72
   17.950       71
   17.965       65
   17.980       67
   17.995       75
   18.010       92
   18.025       74
   18.040       66
   18.055       85
   18.070       85
   18.085       68
   18.100       72
   18.115       94
   18.130       89
   18.145       87
   18.160       99
   18.175      105
   18.190      131
   18.205      131
   18.220      153
   18.235      161
   18.250      171
   18.265      182
   18.280      184
   18.295      148
   18.310      124
   18.325      109
   18.340       81
   18.355       74
   18.370       76
   18.385       75
   18.400       80
   18.415       73
   18.430       84
   18.445       99
   18.460       94
   18.475       91
   18.490      106
   18.505      119
   18.520      134
   18.535      166
   18.550      155
   18.565      160
   18.580      131
   18.595      128
   18.610      161
   18.625      176
   18.640      217
   18.655      186
   18.670      173
   18.685      160
   18.700      127
   18.715      112
   18.730       95
   18.745      102
   18.760       90
   18.775      102
   18.790       87
   18.805       93
   18.820      127
   18.835      119
   18.850      165
   18.865      156
   18.880      150
   18.895      124
   18.910       99
   18.925      105
   18.940      115
   18.955       97
   18.970      101
   18.985       87
   19.000       83
   19.015       81
   19.030       73
   19.045       84
   19.060       85
   19.075       69
   19.090       62
   19.105       61
   19.120       67
   19.135       64
   19.150       64
   19.165       79
   19.180       87
   19.195       98
   19.210       74
   19.225       66
   19.240       82
   19.255       72
   19.270       63
   19.285       53
   19.300       53
   19.315       61
   19.330       68
   19.345       77
   19.360       63
   19.375       66
   19.390       68
   19.405       82
   19.420       61
   19.435       74
   19.450       83
   19.465       71
   19.480       65
   19.495       87
   19.510       76
   19.525       90
   19.540      127
   19.555      134
   19.570      127
   19.585      145
   19.600      139
   19.615      131
   19.630      117
   19.645      119
   19.660       85
   19.675       73
   19.690       73
   19.705       92
   19.720       94
   19.735      118
   19.750      109
   19.765      121
   19.780      162
   19.795      200
   19.810      228
   19.825      298
   19.840      358
   19.855      376
   19.870      348
   19.885      297
   19.900      229
   19.915      185
   19.930      179
   19.945      188
   19.960      207
   19.975      228
   19.990      227
   20.005      213
   20.020      212
   20.035      184
   20.050      159
   20.065      126
   20.080      111
   20.095       93
   20.110       81
   20.125       80
   20.140      104
   20.155       94
   20.170      102
   20.185      110
   20.200      107
   20.215       99
   20.230       93
   20.245       84
   20.260       70
   20.275       77
   20.290       81
   20.305       64
   20.320       55
   20.335       67
   20.350       75
   20.365       74
   20.380       60
   20.395       68
   20.410       71
   20.425       82
   20.440       83
   20.455       73
   20.470       75
   20.485       65
   20.500       68
   20.515       82
   20.530       87
   20.545       82
   20.560       82
   20.575       74
   20.590       64
   20.605       70
   20.620       75
   20.635       78
   20.650       83
   20.665      100
   20.680       84
   20.695       99
   20.710      124
   20.725      133
   20.740      144
   20.755      138
   20.770      135
   20.785      149
   20.800      162
   20.815      177
   20.830      165
   20.845      160
   20.860      137
   20.875      105
   20.890       78
   20.905       70
   20.920       70
   20.935       88
   20.950       91
   20.965      100
   20.980       80
   20.995       71
   21.010       84
   21.025       65
   21.040       68
   21.055       84
   21.070       74
   21.085       87
   21.100       74
   21.115       74
   21.130       84
   21.145       89
   21.160       84
   21.175       90
   21.190      103
   21.205      104
   21.220      100
   21.235       92
   21.250       79
   21.265       78
   21.280       66
   21.295       46
   21.310       61
   21.325       61
   21.340       67
   21.355       92
   21.370       72
   21.385       85
   21.400       62
   21.415       63
   21.430       67
   21.445       86
   21.460       74
   21.475       97
   21.490      122
   21.505      145
   21.520      158
   21.535      181
   21.550      184
   21.565      170
   21.580      174
   21.595      147
   21.610      129
   21.625      141
   21.640      141
   21.655      160
   21.670      166
   21.685      222
   21.700      313
   21.715      386
   21.730      466
   21.745      497
   21.760      434
   21.775      368
   21.790      240
   21.805      177
   21.820      164
   21.835      137
   21.850      136
   21.865      130
   21.880      128
   21.895      113
   21.910       84
   21.925       80
   21.940       78
   21.955       62
   21.970       68
   21.985       71
   22.000       64
   22.015       68
   22.030       66
   22.045       60
   22.060       74
   22.075       83
   22.090       82
   22.105       87
   22.120       70
   22.135       67
   22.150       70
   22.165       71
   22.180       87
   22.195       74
   22.210       64
   22.225       79
   22.240      100
   22.255       84
   22.270       85
   22.285       88
   22.300       91
   22.315      101
   22.330      115
   22.345      112
   22.360      110
   22.375      109
   22.390       98
   22.405       79
   22.420       78
   22.435       71
   22.450       82
   22.465       86
   22.480       92
   22.495      106
   22.510      130
   22.525      128
   22.540      128
   22.555      138
   22.570      146
   22.585      158
   22.600      133
   22.615      120
   22.630      110
   22.645       94
   22.660      103
   22.675      127
   22.690      119
   22.705      125
   22.720      155
   22.735      164
   22.750      193
   22.765      214
   22.780      219
   22.795      205
   22.810      186
   22.825      181
   22.840      177
   22.855      153
   22.870      111
   22.885       99
   22.900       88
   22.915       90
   22.930       81
   22.945       86
   22.960       91
   22.975       96
   22.990      104
   23.005      121
   23.020      113
   23.035      113
   23.050       94
   23.065      109
   23.080      107
   23.095      118
   23.110      116
   23.125      135
   23.140      141
   23.155      120
   23.170       94
   23.185       94
   23.200       81
   23.215       82
   23.230       72
   23.245       65
   23.260       74
   23.275       70
   23.290       77
   23.305       68
   23.320       87
   23.335       77
   23.350       74
   23.365       71
   23.380       61
   23.395       67
   23.410       73
   23.425       67
   23.440       69
   23.455       55
   23.470       61
   23.485       61
   23.500       60
   23.515       54
   23.530       65
   23.545       55
   23.560       65
   23.575       73
   23.590       78
   23.605       76
   23.620       68
   23.635       66
   23.650       73
   23.665       77
   23.680       73
   23.695       58
   23.710       71
   23.725       80
   23.740       77
   23.755       70
   23.770       73
   23.785       75
   23.800       80
   23.815       76
   23.830       73
   23.845       72
   23.860       82
   23.875       78
   23.890       85
   23.905       92
   23.920      105
   23.935      111
   23.950      108
   23.965      107
   23.980       83
   23.995       73
   24.010       66
   24.025       71
   24.040       73
   24.055       69
   24.070       73
   24.085       81
   24.100       84
   24.115       70
   24.130       86
   24.145       99
   24.160       98
   24.175       99
   24.190      107
   24.205      107
   24.220      104
   24.235       94
   24.250       77
   24.265       70
   24.280       65
   24.295       62
   24.310       85
   24.325       69
   24.340       77
   24.355       82
   24.370       80
   24.385       87
   24.400       81
   24.415      103
   24.430       79
   24.445       84
   24.460       72
   24.475       79
   24.490       88
   24.505       83
   24.520       81
   24.535       94
   24.550       93
   24.565      100
   24.580       97
   24.595       92
   24.610       81
   24.625       75
   24.640       78
   24.655       70
   24.670       80
   24.685       77
   24.700       74
   24.715       68
   24.730       51
   24.745       62
   24.760       74
   24.775       73
   24.790       71
   24.805       63
   24.820       71
   24.835       93
   24.850       89
   24.865      113
   24.880       92
   24.895      131
   24.910      119
   24.925       95
   24.940       83
   24.955       94
   24.970       82
   24.985       67
   25.000       84
   25.015       74
   25.030       71
   25.045       72
   25.060       73
   25.075       82
   25.090       86
   25.105      105
   25.120      100
   25.135      101
   25.150      101
   25.165       74
   25.180       86
   25.195       82
   25.210       65
   25.225       70
   25.240       72
   25.255       67
   25.270       69
   25.285       81
   25.300      104
   25.315      112
   25.330      117
   25.345      126
   25.360       96
   25.375      105
   25.390       81
   25.405       89
   25.420       94
   25.435       96
   25.450       76
   25.465       84
   25.480       79
   25.495       96
   25.510       98
   25.525      111
   25.540      122
   25.555      136
   25.570      154
   25.585      156
   25.600      155
   25.615      169
   25.630      152
   25.645      126
   25.660      109
   25.675      100
   25.690       87
   25.705       88
   25.720       90
   25.735       88
   25.750      110
   25.765      107
   25.780      109
   25.795      119
   25.810      109
   25.825      120
   25.840      105
   25.855       91
   25.870       81
   25.885       80
   25.900       72
   25.915       77
   25.930       69
   25.945       72
   25.960       75
   25.975       89
   25.990       98
   26.005       98
   26.020       95
   26.035       95
   26.050       92
   26.065       89
   26.080      103
   26.095      100
   26.110       92
   26.125       87
   26.140       77
   26.155       75
   26.170       84
   26.185       87
   26.200       82
   26.215       87
   26.230       87
   26.245       75
   26.260       85
   26.275       86
   26.290       83
   26.305       87
   26.320       84
   26.335       73
   26.350       76
   26.365       67
   26.380       58
   26.395       67
   26.410       68
   26.425       56
   26.440       66
   26.455       74
   26.470       65
   26.485       67
   26.500       77
   26.515       67
   26.530       75
   26.545       95
   26.560       82
   26.575      107
   26.590      105
   26.605       86
   26.620       79
   26.635       83
   26.650       64
   26.665       70
   26.680       66
   26.695       60
   26.710       75
   26.725       80
   26.740       88
   26.755       80
   26.770       89
   26.785      105
   26.800      127
   26.815      134
   26.830      145
   26.845      143
   26.860      133
   26.875      140
   26.890      147
   26.905      138
   26.920      145
   26.935      116
   26.950       94
   26.965       95
   26.980      107
   26.995       90
   27.010       87
   27.025       74
   27.040       69
   27.055       76
   27.070       87
   27.085       77
   27.100       80
   27.115       83
   27.130       86
   27.145       94
   27.160       82
   27.175       85
   27.190       86
   27.205       79
   27.220       72
   27.235       76
   27.250       81
   27.265       70
   27.280       80
   27.295       86
   27.310       81
   27.325       88
   27.340      101
   27.355      111
   27.370       97
   27.385       98
   27.400       98
   27.415      118
   27.430      123
   27.445      122
   27.460      125
   27.475      116
   27.490      127
   27.505      151
   27.520      130
   27.535      152
   27.550      133
   27.565      146
   27.580      128
   27.595      111
   27.610      116
   27.625      100
   27.640       90
   27.655       87
   27.670      100
   27.685       96
   27.700       84
   27.715       94
   27.730       89
   27.745       93
   27.760      110
   27.775       97
   27.790      112
   27.805      125
   27.820      111
   27.835      115
   27.850       90
   27.865       89
   27.880       86
   27.895       74
   27.910       68
   27.925       66
   27.940       58
   27.955       76
   27.970       81
   27.985       77
   28.000       80
   28.015       97
   28.030       92
   28.045       94
   28.060       93
   28.075       67
   28.090       76
   28.105       79
   28.120       78
   28.135       82
   28.150       80
   28.165       82
   28.180       80
   28.195       85
   28.210       86
   28.225       84
   28.240       90
   28.255       93
   28.270       93
   28.285       87
   28.300      100
   28.315       90
   28.330       83
   28.345       96
   28.360       92
   28.375       76
   28.390       92
   28.405       93
   28.420       75
   28.435       62
   28.450       79
   28.465       71
   28.480       61
   28.495       66
   28.510       74
   28.525       80
   28.540       76
   28.555       87
   28.570       81
   28.585       83
   28.600       85
   28.615       88
   28.630       70
   28.645       74
   28.660       91
   28.675       79
   28.690       97
   28.705       94
   28.720       75
   28.735       87
   28.750       82
   28.765       85
   28.780       89
   28.795      103
   28.810       88
   28.825       88
   28.840       91
   28.855       98
   28.870      102
   28.885       94
   28.900       81
   28.915       85
   28.930       92
   28.945       94
   28.960       89
   28.975       87
   28.990       92
   29.005       75
   29.020       80
   29.035       89
   29.050       98
   29.065       92
   29.080       83
   29.095       75
   29.110       85
   29.125       91
   29.140       99
   29.155       91
   29.170       84
   29.185       79
   29.200       86
   29.215       80
   29.230       77
   29.245       78
   29.260       85
   29.275       77
   29.290       85
   29.305       70
   29.320       66
   29.335       73
   29.350       86
   29.365       83
   29.380       83
   29.395       77
   29.410       84
   29.425       92
   29.440       89
   29.455       91
   29.470       95
   29.485       91
   29.500       78
   29.515       86
   29.530       90
   29.545       86
   29.560      105
   29.575      130
   29.590      125
   29.605      120
   29.620      107
   29.635       89
   29.650       80
   29.665       85
   29.680       83
   29.695       86
   29.710       91
   29.725       89
   29.740       82
   29.755       82
   29.770       92
   29.785       84
   29.800       74
   29.815       72
   29.830       74
   29.845       72
   29.860       73
   29.875       80
   29.890       67
   29.905       72
   29.920       69
   29.935       86
   29.950       73
   29.965       64
   29.980       65
   29.995       82
   30.010       76
   30.025       71
   30.040       57
   30.055       58
   30.070       62
   30.085       61
   30.100       64
   30.115       74
   30.130       81
   30.145       80
   30.160       75
   30.175       69
   30.190       69
   30.205       68
   30.220       79
   30.235       69
   30.250       64
   30.265       75
   30.280       85
   30.295       72
   30.310       68
   30.325       80
   30.340       72
   30.355       64
   30.370       72
   30.385       81
   30.400       82
   30.415       75
   30.430       74
   30.445       73
   30.460       79
   30.475      102
   30.490       99
   30.505       89
   30.520       99
   30.535      108
   30.550      101
   30.565       79
   30.580       94
   30.595       96
   30.610       76
   30.625       77
   30.640       76
   30.655       57
   30.670       69
   30.685       57
   30.700       73
   30.715       75
   30.730       76
   30.745       70
   30.760       72
   30.775       77
   30.790       76
   30.805       91
   30.820       85
   30.835       91
   30.850       88
   30.865       86
   30.880      108
   30.895      101
   30.910       91
   30.925       94
   30.940       91
   30.955       83
   30.970       86
   30.985       87
   31.000       77
   31.015       92
   31.030       88
   31.045       77
   31.060       75
   31.075       67
   31.090       81
   31.105       73
   31.120       80
   31.135       87
   31.150       80
   31.165       72
   31.180       67
   31.195       70
   31.210       61
   31.225       68
   31.240       68
   31.255       72
   31.270       71
   31.285       82
   31.300       79
   31.315       79
   31.330       89
   31.345       88
   31.360       79
   31.375       82
   31.390       76
   31.405       73
   31.420       80
   31.435       91
   31.450       88
   31.465       79
   31.480       86
   31.495       90
   31.510       74
   31.525       77
   31.540       77
   31.555       97
   31.570       87
   31.585       91
   31.600       79
   31.615       91
   31.630       85
   31.645       88
   31.660       90
   31.675       86
   31.690       96
   31.705       84
   31.720       86
   31.735       97
   31.750       94
   31.765       90
   31.780       92
   31.795       96
   31.810       92
   31.825       77
   31.840       72
   31.855       81
   31.870       80
   31.885       83
   31.900       85
   31.915       86
   31.930       86
   31.945       76
   31.960       77
   31.975       76
   31.990       75
   32.005       73
   32.020       81
   32.035       80
   32.050       80
   32.065       93
   32.080       81
   32.095       76
   32.110       68
   32.125       71
   32.140       68
   32.155       74
   32.170       62
   32.185       74
   32.200       73
   32.215       75
   32.230       73
   32.245       77
   32.260       75
   32.275       82
   32.290       75
   32.305       74
   32.320       81
   32.335       70
   32.350       70
   32.365       66
   32.380       65
   32.395       64
   32.410       60
   32.425       61
   32.440       67
   32.455       72
   32.470       77
   32.485       78
   32.500       71
   32.515       70
   32.530       67
   32.545       67
   32.560       73
   32.575       79
   32.590       66
   32.605       74
   32.620       67
   32.635       68
   32.650       74
   32.665       69
   32.680       70
   32.695       61
   32.710       64
   32.725       70
   32.740       73
   32.755       81
   32.770       75
   32.785       94
   32.800       96
   32.815       95
   32.830       89
   32.845       83
   32.860      118
   32.875      104
   32.890      109
   32.905      108
   32.920       91
   32.935      109
   32.950       89
   32.965       72
   32.980       76
   32.995       70
   33.010       80
   33.025       77
   33.040       80
   33.055       91
   33.070       63
   33.085       65
   33.100       66
   33.115       79
   33.130       79
   33.145       61
   33.160       58
   33.175       76
   33.190       65
   33.205       55
   33.220       74
   33.235       80
   33.250       79
   33.265       84
   33.280       80
   33.295       76
   33.310       76
   33.325       94
   33.340       99
   33.355       92
   33.370       89
   33.385       91
   33.400       95
   33.415      121
   33.430       90
   33.445       81
   33.460       91
   33.475       95
   33.490       79
   33.505       89
   33.520       87
   33.535       79
   33.550       73
   33.565       74
   33.580       76
   33.595       90
   33.610       77
   33.625       81
   33.640       89
   33.655       89
   33.670       83
   33.685      100
   33.700      108
   33.715      102
   33.730      108
   33.745      106
   33.760       90
   33.775       93
   33.790       77
   33.805       82
   33.820       84
   33.835       80
   33.850       82
   33.865       95
   33.880       82
   33.895       96
   33.910       78
   33.925       86
   33.940       82
   33.955       86
   33.970       77
   33.985       76
   34.000       78
   34.015       72
   34.030       83
   34.045       81
   34.060       86
   34.075       79
   34.090       69
   34.105       71
   34.120       74
   34.135       74
   34.150       83
   34.165       61
   34.180       68
   34.195       68
   34.210       80
   34.225       73
   34.240       62
   34.255       74
   34.270       77
   34.285       85
   34.300       86
   34.315       82
   34.330       71
   34.345       71
   34.360       78
   34.375       74
   34.390       82
   34.405       68
   34.420       78
   34.435       75
   34.450       68
   34.465       87
   34.480       80
   34.495       71
   34.510       77
   34.525       56
   34.540       63
   34.555       68
   34.570       70
   34.585       69
   34.600       66
   34.615       79
   34.630       78
   34.645       74
   34.660       71
   34.675       72
   34.690       72
   34.705       68
   34.720       70
   34.735       69
   34.750       73
   34.765       74
   34.780       62
   34.795       71
   34.810       78
   34.825       75
   34.840       64
   34.855       56
   34.870       60
   34.885       59
   34.900       62
   34.915       70
   34.930       91
   34.945       71
   34.960       60
   34.975       66
   34.990       76
   35.005       83
   35.020       82
   35.035       66
   35.050       77
   35.065       78
   35.080       86
   35.095       88
   35.110       85
   35.125       86
   35.140       81
   35.155       76
   35.170       88
   35.185       88
   35.200       88
   35.215       89
   35.230       88
   35.245      101
   35.260      104
   35.275       98
   35.290       86
   35.305       90
   35.320       93
   35.335      100
   35.350       99
   35.365       88
   35.380       91
   35.395       91
   35.410       96
   35.425       91
   35.440      103
   35.455      104
   35.470      120
   35.485      111
   35.500      101
   35.515       91
   35.530       95
   35.545       98
   35.560       76
   35.575       81
   35.590       83
   35.605       74
   35.620       65
   35.635       71
   35.650       65
   35.665       56
   35.680       58
   35.695       68
   35.710       73
   35.725       71
   35.740       63
   35.755       60
   35.770       61
   35.785       59
   35.800       64
   35.815       71
   35.830       85
   35.845       69
   35.860       62
   35.875       61
   35.890       63
   35.905       73
   35.920       63
   35.935       71
   35.950       62
   35.965       72
   35.980       64
   35.995       63
   36.010       63
   36.025       71
   36.040       58
   36.055       64
   36.070       60
   36.085       55
   36.100       64
   36.115       70
   36.130       73
   36.145       71
   36.160       78
   36.175       84
   36.190       90
   36.205       73
   36.220       72
   36.235       77
   36.250       76
   36.265       75
   36.280       62
   36.295       64
   36.310       68
   36.325       65
   36.340       70
   36.355       69
   36.370       73
   36.385       62
   36.400       75
   36.415       75
   36.430       66
   36.445       63
   36.460       72
   36.475       75
   36.490       68
   36.505       70
   36.520       69
   36.535       60
   36.550       64
   36.565       59
   36.580       69
   36.595       68
   36.610       83
   36.625       84
   36.640       82
   36.655       83
   36.670       86
   36.685       76
   36.700       81
   36.715       82
   36.730       79
   36.745       70
   36.760       70
   36.775       58
   36.790       82
   36.805       54
   36.820       58
   36.835       76
   36.850       72
   36.865       70
   36.880       71
   36.895       64
   36.910       72
   36.925       69
   36.940       69
   36.955       73
   36.970       83
   36.985       70
   37.000       76
   37.015       73
   37.030       63
   37.045       73
   37.060       67
   37.075       71
   37.090       64
   37.105       75
   37.120       66
   37.135       72
   37.150       81
   37.165       89
   37.180       71
   37.195       87
   37.210       79
   37.225       70
   37.240       73
   37.255       68
   37.270       73
   37.285       71
   37.300       61
   37.315       76
   37.330       57
   37.345       58
   37.360       67
   37.375       71
   37.390       67
   37.405       74
   37.420       65
   37.435       64
   37.450       58
   37.465       62
   37.480       71
   37.495       75
   37.510       72
   37.525       78
   37.540       67
   37.555       62
   37.570       61
   37.585       73
   37.600       78
   37.615       58
   37.630       64
   37.645       66
   37.660       60
   37.675       53
   37.690       57
   37.705       67
   37.720       58
   37.735       71
   37.750       63
   37.765       70
   37.780       68
   37.795       61
   37.810       63
   37.825       79
   37.840       71
   37.855       64
   37.870       74
   37.885       78
   37.900       84
   37.915       87
   37.930       73
   37.945       81
   37.960       72
   37.975       65
   37.990       66
   38.005       63
   38.020       61
   38.035       66
   38.050       67
   38.065       71
   38.080       68
   38.095       75
   38.110       86
   38.125       85
   38.140       73
   38.155       59
   38.170       67
   38.185       74
   38.200       76
   38.215       72
   38.230       63
   38.245       83
   38.260       94
   38.275       89
   38.290       85
   38.305       81
   38.320       77
   38.335       73
   38.350       68
   38.365       73
   38.380       71
   38.395       61
   38.410       69
   38.425       71
   38.440       70
   38.455       71
   38.470       69
   38.485       63
   38.500       57
   38.515       66
   38.530       67
   38.545       68
   38.560       73
   38.575       87
   38.590       70
   38.605       76
   38.620       67
   38.635       63
   38.650       63
   38.665       65
   38.680       74
   38.695       63
   38.710       72
   38.725       74
   38.740       58
   38.755       81
   38.770       63
   38.785       66
   38.800       79
   38.815       69
   38.830       62
   38.845       87
   38.860       67
   38.875       65
   38.890       70
   38.905       67
   38.920       57
   38.935       64
   38.950       65
   38.965       76
   38.980       65
   38.995       69
   39.010       58
   39.025       58
   39.040       68
   39.055       59
   39.070       65
   39.085       63
   39.100       56
   39.115       56
   39.130       53
   39.145       64
   39.160       64
   39.175       58
   39.190       67
   39.205       68
   39.220       59
   39.235       59
   39.250       59
   39.265       46
   39.280       57
   39.295       65
   39.310       71
   39.325       62
   39.340       61
   39.355       67
   39.370       65
   39.385       61
   39.400       69
   39.415       55
   39.430       58
   39.445       59
   39.460       56
   39.475       72
   39.490       73
   39.505       56
   39.520       55
   39.535       53
   39.550       59
   39.565       64
   39.580       65
   39.595       71
   39.610       59
   39.625       65
   39.640       59
   39.655       68
   39.670       57
   39.685       75
   39.700       66
   39.715       73
   39.730       66
   39.745       71
   39.760       63
   39.775       58
   39.790       70
   39.805       57
   39.820       68
   39.835       55
   39.850       57
   39.865       65
   39.880       64
   39.895       60
   39.910       52
   39.925       66
   39.940       66
   39.955       62
   39.970       49
   39.985       62
   40.000       66
   40.015       52
   40.030       57
   40.045       75
   40.060       60
   40.075       51
   40.090       52
   40.105       66
   40.120       65
   40.135       66
   40.150       55
   40.165       58
   40.180       56
   40.195       46
   40.210       56
   40.225       49
   40.240       68
   40.255       57
   40.270       61
   40.285       67
   40.300       67
   40.315       62
   40.330       53
   40.345       69
   40.360       66
   40.375       77
   40.390       78
   40.405       77
   40.420       82
   40.435       65
   40.450       63
   40.465       55
   40.480       62
   40.495       63
   40.510       66
   40.525       66
   40.540       61
   40.555       61
   40.570       58
   40.585       53
   40.600       67
   40.615       81
   40.630       66
   40.645       60
   40.660       73
   40.675       71
   40.690       71
   40.705       56
   40.720       72
   40.735       74
   40.750       71
   40.765       57
   40.780       65
   40.795       59
   40.810       61
   40.825       54
   40.840       58
   40.855       66
   40.870       61
   40.885       55
   40.900       57
   40.915       60
   40.930       61
   40.945       59
   40.960       64
   40.975       57
   40.990       53
   41.005       51
   41.020       67
   41.035       67
   41.050       74
   41.065       70
   41.080       61
   41.095       56
   41.110       66
   41.125       55
   41.140       51
   41.155       48
   41.170       55
   41.185       56
   41.200       55
   41.215       54
   41.230       58
   41.245       57
   41.260       62
   41.275       58
   41.290       63
   41.305       60
   41.320       71
   41.335       57
   41.350       66
   41.365       62
   41.380       63
   41.395       61
   41.410       55
   41.425       62
   41.440       47
   41.455       52
   41.470       51
   41.485       62
   41.500       64
   41.515       50
   41.530       55
   41.545       60
   41.560       61
   41.575       70
   41.590       75
   41.605       56
   41.620       62
   41.635       58
   41.650       65
   41.665       70
   41.680       54
   41.695       64
   41.710       59
   41.725       51
   41.740       51
   41.755       54
   41.770       68
   41.785       56
   41.800       57
   41.815       60
   41.830       65
   41.845       69
   41.860       49
   41.875       55
   41.890       52
   41.905       55
   41.920       56
   41.935       59
   41.950       74
   41.965       69
   41.980       57
   41.995       64
   42.010       70
   42.025       74
   42.040       58
   42.055       62
   42.070       57
   42.085       58
   42.100       59
   42.115       50
   42.130       57
   42.145       57
   42.160       46
   42.175       64
   42.190       65
   42.205       78
   42.220       54
   42.235       45
   42.250       57
   42.265       62
   42.280       56
   42.295       80
   42.310       72
   42.325       49
   42.340       66
   42.355       61
   42.370       64
   42.385       60
   42.400       62
   42.415       48
   42.430       49
   42.445       51
   42.460       55
   42.475       58
   42.490       56
   42.505       61
   42.520       48
   42.535       53
   42.550       60
   42.565       53
   42.580       56
   42.595       51
   42.610       57
   42.625       52
   42.640       65
   42.655       56
   42.670       65
   42.685       56
   42.700       56
   42.715       54
   42.730       59
   42.745       59
   42.760       55
   42.775       58
   42.790       58
   42.805       47
   42.820       52
   42.835       62
   42.850       61
   42.865       56
   42.880       59
   42.895       65
   42.910       65
   42.925       61
   42.940       60
   42.955       63
   42.970       62
   42.985       66
   43.000       56
   43.015       73
   43.030       73
   43.045       74
   43.060       50
   43.075       65
   43.090       55
   43.105       55
   43.120       63
   43.135       53
   43.150       60
   43.165       65
   43.180       51
   43.195       54
   43.210       46
   43.225       53
   43.240       57
   43.255       60
   43.270       70
   43.285       62
   43.300       68
   43.315       53
   43.330       46
   43.345       69
   43.360       52
   43.375       60
   43.390       57
   43.405       52
   43.420       54
   43.435       54
   43.450       62
   43.465       67
   43.480       58
   43.495       55
   43.510       53
   43.525       62
   43.540       54
   43.555       56
   43.570       56
   43.585       60
   43.600       52
   43.615       58
   43.630       55
   43.645       47
   43.660       54
   43.675       51
   43.690       60
   43.705       59
   43.720       58
   43.735       63
   43.750       59
   43.765       55
   43.780       63
   43.795       70
   43.810       67
   43.825       49
   43.840       56
   43.855       62
   43.870       57
   43.885       68
   43.900       70
   43.915       54
   43.930       60
   43.945       63
   43.960       60
   43.975       60
   43.990       65
   44.005       69
   44.020       55
   44.035       51
   44.050       50
   44.065       60
   44.080       66
   44.095       68
   44.110       63
   44.125       59
   44.140       52
   44.155       53
   44.170       59
   44.185       55
   44.200       59
   44.215       63
   44.230       55
   44.245       53
   44.260       62
   44.275       67
   44.290       56
   44.305       64
   44.320       60
   44.335       52
   44.350       57
   44.365       62
   44.380       62
   44.395       57
   44.410       65
   44.425       67
   44.440       56
   44.455       52
   44.470       66
   44.485       61
   44.500       56
   44.515       62
   44.530       61
   44.545       69
   44.560       56
   44.575       73
   44.590       59
   44.605       58
   44.620       65
   44.635       62
   44.650       65
   44.665       55
   44.680       53
   44.695       63
   44.710       71
   44.725       62
   44.740       57
   44.755       76
   44.770       66
   44.785       69
   44.800       60
   44.815       59
   44.830       72
   44.845       59
   44.860       62
   44.875       70
   44.890       65
   44.905       61
   44.920       63
   44.935       66
   44.950       76
   44.965       70
   44.980       63
   44.995       68
   45.010       75
   45.025       75
   45.040       67
   45.055       63
   45.070       56
   45.085       60
   45.100       59
   45.115       71
   45.130       67
   45.145       60
   45.160       51
   45.175       60
   45.190       56
   45.205       78
   45.220       72
   45.235       62
   45.250       55
   45.265       55
   45.280       59
   45.295       56
   45.310       65
   45.325       67
   45.340       59
   45.355       54
   45.370       61
   45.385       57
   45.400       63
   45.415       50
   45.430       61
   45.445       66
   45.460       62
   45.475       62
   45.490       60
   45.505       62
   45.520       63
   45.535       65
   45.550       43
   45.565       43
   45.580       57
   45.595       54
   45.610       57
   45.625       52
   45.640       49
   45.655       51
   45.670       49
   45.685       43
   45.700       49
   45.715       67
   45.730       70
   45.745       55
   45.760       54
   45.775       50
   45.790       65
   45.805       61
   45.820       65
   45.835       61
   45.850       62
   45.865       65
   45.880       48
   45.895       57
   45.910       65
   45.925       46
   45.940       62
   45.955       52
   45.970       57
   45.985       66
