    4.000      730
    4.015      720
    4.030      738
    4.045      738
    4.060      728
    4.075      732
    4.090      701
    4.105      724
    4.120      720
    4.135      744
    4.150      712
    4.165      754
    4.180      742
    4.195      782
    4.210      732
    4.225      728
    4.240      719
    4.255      752
    4.270      757
    4.285      761
    4.300      710
    4.315      703
    4.330      738
    4.345      715
    4.360      729
    4.375      734
    4.390      699
    4.405      745
    4.420      730
    4.435      729
    4.450      713
    4.465      709
    4.480      669
    4.495      755
    4.510      744
    4.525      760
    4.540      714
    4.555      715
    4.570      694
    4.585      714
    4.600      736
    4.615      723
    4.630      676
    4.645      736
    4.660      761
    4.675      726
    4.690      700
    4.705      710
    4.720      696
    4.735      725
    4.750      745
    4.765      733
    4.780      743
    4.795      683
    4.810      706
    4.825      696
    4.840      676
    4.855      665
    4.870      721
    4.885      686
    4.900      703
    4.915      730
    4.930      692
    4.945      701
    4.960      724
    4.975      670
    4.990      699
    5.005      706
    5.020      715
    5.035      677
    5.050      698
    5.065      689
    5.080      711
    5.095      717
    5.110      700
    5.125      681
    5.140      637
    5.155      687
    5.170      722
    5.185      716
    5.200      695
    5.215      686
    5.230      686
    5.245      670
    5.260      730
    5.275      711
    5.290      716
    5.305      712
    5.320      753
    5.335      676
    5.350      729
    5.365      706
    5.380      706
    5.395      695
    5.410      683
    5.425      693
    5.440      693
    5.455      681
    5.470      719
    5.485      671
    5.500      705
    5.515      677
    5.530      704
    5.545      674
    5.560      715
    5.575      705
    5.590      715
    5.605      700
    5.620      694
    5.635      718
    5.650      661
    5.665      680
    5.680      673
    5.695      666
    5.710      678
    5.725      666
    5.740      708
    5.755      678
    5.770      668
    5.785      672
    5.800      670
    5.815      695
    5.830      693
    5.845      719
    5.860      695
    5.875      666
    5.890      673
    5.905      677
    5.920      710
    5.935      746
    5.950      685
    5.965      661
    5.980      699
    5.995      693
    6.010      692
    6.025      704
    6.040      690
    6.055      704
    6.070      706
    6.085      762
    6.100      732
    6.115      717
    6.130      716
    6.145      710
    6.160      728
    6.175      715
    6.190      722
    6.205      744
    6.220      824
    6.235      864
    6.250      877
    6.265      904
    6.280      891
    6.295      927
    6.310     1027
    6.325     1017
    6.340     1049
    6.355     1110
    6.370     1155
    6.385     1238
    6.400     1345
    6.415     1470
    6.430     1550
    6.445     1751
    6.460     1844
    6.475     1960
    6.490     2164
    6.505     2338
    6.520     2558
    6.535     2890
    6.550     3231
    6.565     3661
    6.580     4108
    6.595     4785
    6.610     5633
    6.625     6735
    6.640     7008
    6.655     6613
    6.670     6455
    6.685     6575
    6.700     5779
    6.715     3653
    6.730     1899
    6.745     1084
    6.760      888
    6.775      848
    6.790      767
    6.805      772
    6.820      759
    6.835      748
    6.850      766
    6.865      716
    6.880      718
    6.895      704
    6.910      712
    6.925      754
    6.940      756
    6.955      737
    6.970      734
    6.985      761
    7.000      824
    7.015      799
    7.030      799
    7.045      823
    7.060      850
    7.075      885
    7.090      976
    7.105     1008
    7.120     1083
    7.135     1154
    7.150     1234
    7.165     1367
    7.180     1534
    7.195     1776
    7.210     2022
    7.225     1815
    7.240     1368
    7.255      977
    7.270      776
    7.285      736
    7.300      705
    7.315      682
    7.330      680
    7.345      704
    7.360      682
    7.375      657
    7.390      669
    7.405      701
    7.420      708
    7.435      690
    7.450      685
    7.465      665
    7.480      699
    7.495      660
    7.510      689
    7.525      664
    7.540      686
    7.555      680
    7.570      747
    7.585      718
    7.600      725
    7.615      748
    7.630      750
    7.645      758
    7.660      817
    7.675      814
    7.690      867
    7.705      852
    7.720      777
    7.735      745
    7.750      727
    7.765      671
    7.780      702
    7.795      740
    7.810      685
    7.825      688
    7.840      694
    7.855      706
    7.870      712
    7.885      706
    7.900      685
    7.915      692
    7.930      671
    7.945      672
    7.960      658
    7.975      689
    7.990      670
    8.005      696
    8.020      702
    8.035      699
    8.050      712
    8.065      705
    8.080      705
    8.095      695
    8.110      705
    8.125      692
    8.140      668
    8.155      700
    8.170      731
    8.185      747
    8.200      686
    8.215      712
    8.230      716
    8.245      709
    8.260      728
    8.275      700
    8.290      714
    8.305      694
    8.320      693
    8.335      764
    8.350      695
    8.365      718
    8.380      658
    8.395      711
    8.410      736
    8.425      740
    8.440      740
    8.455      715
    8.470      756
    8.485      767
    8.500      755
    8.515      758
    8.530      788
    8.545      803
    8.560      848
    8.575      887
    8.590      837
    8.605      877
    8.620      848
    8.635      776
    8.650      772
    8.665      746
    8.680      711
    8.695      691
    8.710      725
    8.725      763
    8.740      750
    8.755      742
    8.770      732
    8.785      693
    8.800      723
    8.815      763
    8.830      730
    8.845      783
    8.860      780
    8.875      719
    8.890      754
    8.905      727
    8.920      739
    8.935      754
    8.950      754
    8.965      731
    8.980      692
    8.995      717
    9.010      764
    9.025      787
    9.040      767
    9.055      742
    9.070      714
    9.085      740
    9.100      776
    9.115      777
    9.130      742
    9.145      753
    9.160      788
    9.175      769
    9.190      740
    9.205      773
    9.220      783
    9.235      762
    9.250      779
    9.265      744
    9.280      737
    9.295      802
    9.310      789
    9.325      767
    9.340      770
    9.355      809
    9.370      785
    9.385      834
    9.400      823
    9.415      887
    9.430      881
    9.445      821
    9.460      812
    9.475      788
    9.490      775
    9.505      782
    9.520      822
    9.535      820
    9.550      768
    9.565      788
    9.580      742
    9.595      751
    9.610      767
    9.625      774
    9.640      800
    9.655      769
    9.670      748
    9.685      788
    9.700      799
    9.715      821
    9.730      813
    9.745      803
    9.760      821
    9.775      835
    9.790      869
    9.805      892
    9.820      886
    9.835      895
    9.850      875
    9.865      853
    9.880      815
    9.895      837
    9.910      793
    9.925      747
    9.940      840
    9.955      781
    9.970      832
    9.985      781
   10.000      766
   10.015      824
   10.030      812
   10.045      834
   10.060      813
   10.075      806
   10.090      814
   10.105      767
   10.120      807
   10.135      867
   10.150      800
   10.165      806
   10.180      807
   10.195      838
   10.210      845
   10.225      878
   10.240      842
   10.255      943
   10.270     1005
   10.285      960
   10.300      928
   10.315      892
   10.330      889
   10.345      902
   10.360      865
   10.375      845
   10.390      956
   10.405      941
   10.420      934
   10.435     1002
   10.450     1119
   10.465     1189
   10.480     1293
   10.495     1447
   10.510     1513
   10.525     1423
   10.540     1214
   10.555     1007
   10.570      920
   10.585      900
   10.600      823
   10.615      869
   10.630      904
   10.645     1008
   10.660     1002
   10.675     1104
   10.690     1120
   10.705     1261
   10.720     1335
   10.735     1427
   10.750     1557
   10.765     1731
   10.780     1950
   10.795     2208
   10.810     2521
   10.825     2748
   10.840     2882
   10.855     3280
   10.870     3961
   10.885     4948
   10.900     5250
   10.915     4256
   10.930     2842
   10.945     1957
   10.960     1441
   10.975     1121
   10.990     1002
   11.005      891
   11.020      841
   11.035      844
   11.050      837
   11.065      884
   11.080      885
   11.095      851
   11.110      852
   11.125      905
   11.140      867
   11.155      895
   11.170     1009
   11.185     1020
   11.200     1079
   11.215     1112
   11.230     1156
   11.245     1270
   11.260     1486
   11.275     1599
   11.290     1413
   11.305     1128
   11.320      994
   11.335      983
   11.350      927
   11.365      923
   11.380      970
   11.395     1011
   11.410      976
   11.425     1021
   11.440     1054
   11.455     1122
   11.470     1217
   11.485     1175
   11.500     1110
   11.515      925
   11.530      871
   11.545      788
   11.560      801
   11.575      770
   11.590      774
   11.605      816
   11.620      820
   11.635      807
   11.650      787
   11.665      762
   11.680      806
   11.695      837
   11.710      936
   11.725      935
   11.740      949
   11.755     1006
   11.770     1033
   11.785     1095
   11.800     1213
   11.815     1366
   11.830     1470
   11.845     1533
   11.860     1420
   11.875     1372
   11.890     1317
   11.905     1414
   11.920     1491
   11.935     1408
   11.950     1208
   11.965     1074
   11.980     1009
   11.995     1096
   12.010     1193
   12.025     1156
   12.040     1240
   12.055     1133
   12.070     1024
   12.085     1034
   12.100     1041
   12.115     1062
   12.130     1033
   12.145      955
   12.160      900
   12.175      862
   12.190      862
   12.205      823
   12.220      850
   12.235      861
   12.250      849
   12.265      792
   12.280      817
   12.295      829
   12.310      853
   12.325      829
   12.340      786
   12.355      845
   12.370      866
   12.385      834
   12.400      860
   12.415      845
   12.430      893
   12.445      888
   12.460      912
   12.475      915
   12.490      960
   12.505      987
   12.520      970
   12.535     1010
   12.550     1079
   12.565     1221
   12.580     1283
   12.595     1409
   12.610     1580
   12.625     1784
   12.640     1936
   12.655     2235
   12.670     2703
   12.685     3296
   12.700     4053
   12.715     4912
   12.730     5076
   12.745     4455
   12.760     3718
   12.775     3514
   12.790     3489
   12.805     3268
   12.820     2755
   12.835     2162
   12.850     1530
   12.865     1232
   12.880     1147
   12.895     1138
   12.910     1132
   12.925     1145
   12.940     1145
   12.955     1213
   12.970     1280
   12.985     1435
   13.000     1638
   13.015     1794
   13.030     2024
   13.045     2352
   13.060     2821
   13.075     3452
   13.090     4193
   13.105     4339
   13.120     3848
   13.135     3116
   13.150     2777
   13.165     2682
   13.180     3086
   13.195     3661
   13.210     4372
   13.225     5005
   13.240     5614
   13.255     6390
   13.270     7611
   13.285     9047
   13.300     9805
   13.315     9255
   13.330     8580
   13.345     8671
   13.360    10480
   13.375    13413
   13.390    17071
   13.405    19311
   13.420    17243
   13.435    11400
   13.450     5839
   13.465     3294
   13.480     2477
   13.495     2168
   13.510     2090
   13.525     2155
   13.540     2298
   13.555     2513
   13.570     2744
   13.585     3147
   13.600     3616
   13.615     4363
   13.630     5391
   13.645     5834
   13.660     5913
   13.675     5947
   13.690     5179
   13.705     3616
   13.720     2268
   13.735     1575
   13.750     1292
   13.765     1178
   13.780     1162
   13.795     1194
   13.810     1156
   13.825     1147
   13.840     1137
   13.855     1190
   13.870     1316
   13.885     1443
   13.900     1536
   13.915     1555
   13.930     1457
   13.945     1287
   13.960     1081
   13.975     1044
   13.990      990
   14.005      962
   14.020      968
   14.035      992
   14.050      972
   14.065      921
   14.080      958
   14.095      987
   14.110      998
   14.125     1001
   14.140     1020
   14.155     1071
   14.170     1139
   14.185     1222
   14.200     1235
   14.215     1270
   14.230     1282
   14.245     1332
   14.260     1563
   14.275     1669
   14.290     1875
   14.305     2181
   14.320     2567
   14.335     3161
   14.350     3732
   14.365     4262
   14.380     4176
   14.395     3745
   14.410     3065
   14.425     2773
   14.440     2917
   14.455     3155
   14.470     3034
   14.485     2754
   14.500     2559
   14.515     2577
   14.530     2840
   14.545     3178
   14.560     3855
   14.575     4542
   14.590     5149
   14.605     4830
   14.620     3666
   14.635     2506
   14.650     1682
   14.665     1355
   14.680     1179
   14.695     1136
   14.710     1078
   14.725     1064
   14.740     1037
   14.755     1020
   14.770     1064
   14.785     1081
   14.800     1040
   14.815     1026
   14.830     1064
   14.845     1094
   14.860     1130
   14.875     1101
   14.890     1124
   14.905     1205
   14.920     1159
   14.935     1253
   14.950     1373
   14.965     1410
   14.980     1600
   14.995     1838
   15.010     2158
   15.025     2441
   15.040     2895
   15.055     3488
   15.070     4300
   15.085     5256
   15.100     6327
   15.115     7240
   15.130     8432
   15.145    10393
   15.160    13155
   15.175    14881
   15.190    13955
   15.205    10470
   15.220     6694
   15.235     4141
   15.250     3082
   15.265     2767
   15.280     2786
   15.295     2833
   15.310     2825
   15.325     2714
   15.340     2724
   15.355     2763
   15.370     3009
   15.385     3638
   15.400     4265
   15.415     4473
   15.430     4086
   15.445     3624
   15.460     3215
   15.475     2785
   15.490     2460
   15.505     2218
   15.520     1973
   15.535     2037
   15.550     2145
   15.565     2371
   15.580     2749
   15.595     3455
   15.610     4115
   15.625     4880
   15.640     5524
   15.655     5967
   15.670     6500
   15.685     6679
   15.700     5784
   15.715     4393
   15.730     3390
   15.745     3067
   15.760     3207
   15.775     3264
   15.790     3208
   15.805     3084
   15.820     3220
   15.835     3452
   15.850     4028
   15.865     4427
   15.880     4387
   15.895     3853
   15.910     2941
   15.925     2082
   15.940     1605
   15.955     1463
   15.970     1354
   15.985     1265
   16.000     1259
   16.015     1306
   16.030     1312
   16.045     1344
   16.060     1405
   16.075     1517
   16.090     1589
   16.105     1845
   16.120     2098
   16.135     2345
   16.150     2832
   16.165     3446
   16.180     4133
   16.195     4514
   16.210     4819
   16.225     5014
   16.240     5198
   16.255     4816
   16.270     3768
   16.285     2689
   16.300     1969
   16.315     1788
   16.330     1687
   16.345     1766
   16.360     1935
   16.375     2294
   16.390     2519
   16.405     2639
   16.420     2760
   16.435     2925
   16.450     3313
   16.465     3811
   16.480     4752
   16.495     5965
   16.510     7727
   16.525     9001
   16.540     8920
   16.555     7342
   16.570     5715
   16.585     5098
   16.600     5219
   16.615     5707
   16.630     6319
   16.645     6216
   16.660     5434
   16.675     4766
   16.690     4530
   16.705     4387
   16.720     4201
   16.735     4047
   16.750     3896
   16.765     4276
   16.780     5078
   16.795     5553
   16.810     5630
   16.825     5525
   16.840     5518
   16.855     5869
   16.870     5905
   16.885     5728
   16.900     5188
   16.915     4327
   16.930     3276
   16.945     2488
   16.960     2012
   16.975     1777
   16.990     1797
   17.005     1828
   17.020     1903
   17.035     2139
   17.050     2379
   17.065     2808
   17.080     3406
   17.095     4194
   17.110     4974
   17.125     5271
   17.140     4744
   17.155     3829
   17.170     3099
   17.185     2803
   17.200     2826
   17.215     3204
   17.230     3825
   17.245     4562
   17.260     5471
   17.275     6656
   17.290     7393
   17.305     7741
   17.320     7311
   17.335     6271
   17.350     4961
   17.365     3564
   17.380     2630
   17.395     2340
   17.410     2310
   17.425     2300
   17.440     2267
   17.455     2133
   17.470     1992
   17.485     1966
   17.500     2023
   17.515     2190
   17.530     2413
   17.545     2768
   17.560     3449
   17.575     4088
   17.590     4164
   17.605     3764
   17.620     2857
   17.635     2073
   17.650     1713
   17.665     1497
   17.680     1538
   17.695     1533
   17.710     1671
   17.725     1853
   17.740     2107
   17.755     2287
   17.770     2267
   17.785     2016
   17.800     1769
   17.815     1689
   17.830     1718
   17.845     1940
   17.860     2051
   17.875     1888
   17.890     1796
   17.905     1736
   17.920     1703
   17.935     1575
   17.950     1497
   17.965     1357
   17.980     1267
   17.995     1249
   18.010     1140
   18.025     1138
   18.040     1112
   18.055     1092
   18.070     1066
   18.085     1081
   18.100     1112
   18.115     1077
   18.130     1097
   18.145     1078
   18.160     1058
   18.175     1076
   18.190     1103
   18.205     1152
   18.220     1175
   18.235     1269
   18.250     1396
   18.265     1472
   18.280     1565
   18.295     1775
   18.310     2163
   18.325     2529
   18.340     2866
   18.355     3249
   18.370     3733
   18.385     4292
   18.400     4451
   18.415     4093
   18.430     3383
   18.445     2651
   18.460     2142
   18.475     1797
   18.490     1574
   18.505     1381
   18.520     1278
   18.535     1260
   18.550     1284
   18.565     1321
   18.580     1350
   18.595     1432
   18.610     1634
   18.625     1794
   18.640     1998
   18.655     2409
   18.670     2657
   18.685     2632
   18.700     2469
   18.715     2239
   18.730     2239
   18.745     2415
   18.760     2682
   18.775     2732
   18.790     2529
   18.805     2198
   18.820     1867
   18.835     1646
   18.850     1505
   18.865     1351
   18.880     1272
   18.895     1269
   18.910     1300
   18.925     1356
   18.940     1435
   18.955     1482
   18.970     1722
   18.985     1740
   19.000     1666
   19.015     1567
   19.030     1433
   19.045     1484
   19.060     1556
   19.075     1622
   19.090     1636
   19.105     1576
   19.120     1431
   19.135     1310
   19.150     1300
   19.165     1264
   19.180     1230
   19.195     1174
   19.210     1134
   19.225     1057
   19.240     1057
   19.255     1025
   19.270     1004
   19.285      987
   19.300      996
   19.315      983
   19.330      997
   19.345     1052
   19.360     1032
   19.375     1028
   19.390     1027
   19.405      978
   19.420     1026
   19.435     1077
   19.450     1126
   19.465     1204
   19.480     1285
   19.495     1308
   19.510     1318
   19.525     1412
   19.540     1491
   19.555     1650
   19.570     1736
   19.585     1870
   19.600     2003
   19.615     1984
   19.630     1921
   19.645     1876
   19.660     1984
   19.675     2258
   19.690     2616
   19.705     2851
   19.720     2959
   19.735     2810
   19.750     2604
   19.765     2378
   19.780     2004
   19.795     1742
   19.810     1552
   19.825     1537
   19.840     1571
   19.855     1617
   19.870     1820
   19.885     2121
   19.900     2508
   19.915     3058
   19.930     3622
   19.945     4442
   19.960     5315
   19.975     6684
   19.990     7855
   20.005     8925
   20.020     8539
   20.035     6978
   20.050     5484
   20.065     4562
   20.080     4498
   20.095     4976
   20.110     5336
   20.125     5347
   20.140     5023
   20.155     4531
   20.170     3796
   20.185     3281
   20.200     2566
   20.215     1893
   20.230     1557
   20.245     1459
   20.260     1454
   20.275     1445
   20.290     1544
   20.305     1727
   20.320     1704
   20.335     1684
   20.350     1618
   20.365     1394
   20.380     1249
   20.395     1191
   20.410     1152
   20.425     1176
   20.440     1218
   20.455     1270
   20.470     1276
   20.485     1178
   20.500     1145
   20.515     1170
   20.530     1049
   20.545     1041
   20.560     1065
   20.575     1072
   20.590     1118
   20.605     1187
   20.620     1220
   20.635     1284
   20.650     1422
   20.665     1465
   20.680     1502
   20.695     1342
   20.710     1294
   20.725     1270
   20.740     1313
   20.755     1361
   20.770     1460
   20.785     1604
   20.800     1761
   20.815     1866
   20.830     1988
   20.845     2152
   20.860     2233
   20.875     2332
   20.890     2436
   20.905     2499
   20.920     2411
   20.935     2318
   20.950     2434
   20.965     2873
   20.980     2943
   20.995     2623
   21.010     2169
   21.025     1770
   21.040     1471
   21.055     1282
   21.070     1138
   21.085     1202
   21.100     1199
   21.115     1182
   21.130     1185
   21.145     1126
   21.160     1057
   21.175     1047
   21.190     1033
   21.205     1001
   21.220     1046
   21.235     1111
   21.250     1121
   21.265     1179
   21.280     1177
   21.295     1233
   21.310     1330
   21.325     1519
   21.340     1608
   21.355     1754
   21.370     1746
   21.385     1534
   21.400     1340
   21.415     1159
   21.430     1144
   21.445     1171
   21.460     1182
   21.475     1206
   21.490     1189
   21.505     1162
   21.520     1084
   21.535     1029
   21.550     1059
   21.565     1083
   21.580     1111
   21.595     1148
   21.610     1233
   21.625     1326
   21.640     1468
   21.655     1734
   21.670     2012
   21.685     2417
   21.700     2893
   21.715     3177
   21.730     3092
   21.745     2840
   21.760     2417
   21.775     2302
   21.790     2263
   21.805     2477
   21.820     2831
   21.835     3533
   21.850     4525
   21.865     5941
   21.880     7410
   21.895     8091
   21.910     7466
   21.925     5903
   21.940     4240
   21.955     3095
   21.970     2407
   21.985     2159
   22.000     2016
   22.015     1851
   22.030     1748
   22.045     1638
   22.060     1557
   22.075     1481
   22.090     1361
   22.105     1184
   22.120     1128
   22.135     1036
   22.150     1008
   22.165     1011
   22.180     1012
   22.195      986
   22.210     1037
   22.225     1013
   22.240      999
   22.255     1007
   22.270      979
   22.285     1020
   22.300     1011
   22.315     1013
   22.330     1064
   22.345     1037
   22.360     1120
   22.375     1198
   22.390     1267
   22.405     1412
   22.420     1502
   22.435     1500
   22.450     1478
   22.465     1502
   22.480     1675
   22.495     1749
   22.510     1838
   22.525     1714
   22.540     1457
   22.555     1294
   22.570     1113
   22.585     1144
   22.600     1153
   22.615     1239
   22.630     1363
   22.645     1567
   22.660     1625
   22.675     1656
   22.690     1696
   22.705     1823
   22.720     1960
   22.735     2274
   22.750     2350
   22.765     2306
   22.780     1932
   22.795     1619
   22.810     1510
   22.825     1476
   22.840     1594
   22.855     1789
   22.870     1978
   22.885     2185
   22.900     2504
   22.915     2659
   22.930     2687
   22.945     2624
   22.960     2454
   22.975     2265
   22.990     2141
   23.005     1887
   23.020     1674
   23.035     1400
   23.050     1275
   23.065     1207
   23.080     1172
   23.095     1170
   23.110     1146
   23.125     1220
   23.140     1270
   23.155     1367
   23.170     1460
   23.185     1485
   23.200     1494
   23.215     1463
   23.230     1445
   23.245     1489
   23.260     1768
   23.275     1853
   23.290     1840
   23.305     1881
   23.320     1735
   23.335     1482
   23.350     1286
   23.365     1183
   23.380     1066
   23.395     1019
   23.410     1054
   23.425      993
   23.440     1029
   23.455     1080
   23.470     1114
   23.485     1102
   23.500     1154
   23.515     1176
   23.530     1141
   23.545     1068
   23.560     1002
   23.575      988
   23.590      940
   23.605      959
   23.620     1019
   23.635      995
   23.650      990
   23.665      941
   23.680      957
   23.695      962
   23.710     1006
   23.725     1068
   23.740     1113
   23.755     1192
   23.770     1216
   23.785     1287
   23.800     1301
   23.815     1309
   23.830     1323
   23.845     1240
   23.860     1208
   23.875     1111
   23.890     1039
   23.905     1147
   23.920     1109
   23.935     1117
   23.950     1147
   23.965     1160
   23.980     1171
   23.995     1134
   24.010     1159
   24.025     1170
   24.040     1321
   24.055     1492
   24.070     1635
   24.085     1815
   24.100     1812
   24.115     1648
   24.130     1402
   24.145     1247
   24.160     1095
   24.175     1024
   24.190      990
   24.205     1018
   24.220     1028
   24.235     1022
   24.250      998
   24.265     1053
   24.280     1064
   24.295     1103
   24.310     1154
   24.325     1326
   24.340     1485
   24.355     1542
   24.370     1449
   24.385     1249
   24.400     1184
   24.415     1063
   24.430      998
   24.445      911
   24.460      910
   24.475      956
   24.490      946
   24.505      942
   24.520      955
   24.535      974
   24.550     1010
   24.565      999
   24.580     1009
   24.595     1010
   24.610     1047
   24.625     1068
   24.640     1154
   24.655     1277
   24.670     1454
   24.685     1513
   24.700     1652
   24.715     1716
   24.730     1713
   24.745     1672
   24.760     1642
   24.775     1464
   24.790     1285
   24.805     1215
   24.820     1289
   24.835     1260
   24.850     1237
   24.865     1222
   24.880     1224
   24.895     1161
   24.910     1064
   24.925     1028
   24.940     1000
   24.955     1000
   24.970     1001
   24.985      994
   25.000     1118
   25.015     1200
   25.030     1287
   25.045     1498
   25.060     1730
   25.075     2020
   25.090     2124
   25.105     2023
   25.120     1761
   25.135     1508
   25.150     1376
   25.165     1257
   25.180     1188
   25.195     1215
   25.210     1090
   25.225     1120
   25.240     1137
   25.255     1158
   25.270     1291
   25.285     1429
   25.300     1492
   25.315     1450
   25.330     1392
   25.345     1224
   25.360     1061
   25.375     1054
   25.390     1103
   25.405     1075
   25.420     1139
   25.435     1165
   25.450     1310
   25.465     1488
   25.480     1588
   25.495     1773
   25.510     1910
   25.525     1986
   25.540     1736
   25.555     1470
   25.570     1317
   25.585     1244
   25.600     1208
   25.615     1221
   25.630     1214
   25.645     1233
   25.660     1241
   25.675     1333
   25.690     1473
   25.705     1602
   25.720     1800
   25.735     2051
   25.750     2264
   25.765     2417
   25.780     2562
   25.795     2481
   25.810     2263
   25.825     1995
   25.840     1706
   25.855     1577
   25.870     1403
   25.885     1434
   25.900     1528
   25.915     1648
   25.930     1810
   25.945     1919
   25.960     2045
   25.975     2272
   25.990     2308
   26.005     2172
   26.020     1932
   26.035     1764
   26.050     1525
   26.065     1421
   26.080     1417
   26.095     1381
   26.110     1290
   26.125     1281
   26.140     1254
   26.155     1230
   26.170     1248
   26.185     1282
   26.200     1270
   26.215     1292
   26.230     1392
   26.245     1534
   26.260     1643
   26.275     1881
   26.290     1912
   26.305     1893
   26.320     1753
   26.335     1545
   26.350     1425
   26.365     1325
   26.380     1266
   26.395     1203
   26.410     1167
   26.425     1248
   26.440     1378
   26.455     1419
   26.470     1417
   26.485     1343
   26.500     1315
   26.515     1216
   26.530     1164
   26.545     1111
   26.560     1115
   26.575     1078
   26.590     1057
   26.605     1084
   26.620     1139
   26.635     1168
   26.650     1116
   26.665     1087
   26.680     1105
   26.695     1124
   26.710     1114
   26.725     1176
   26.740     1310
   26.755     1398
   26.770     1411
   26.785     1429
   26.800     1307
   26.815     1212
   26.830     1153
   26.845     1116
   26.860     1109
   26.875     1095
   26.890     1126
   26.905     1194
   26.920     1278
   26.935     1316
   26.950     1518
   26.965     1702
   26.980     1998
   26.995     2232
   27.010     2350
   27.025     2351
   27.040     2285
   27.055     2263
   27.070     2395
   27.085     2366
   27.100     2287
   27.115     1955
   27.130     1626
   27.145     1523
   27.160     1444
   27.175     1373
   27.190     1271
   27.205     1227
   27.220     1191
   27.235     1201
   27.250     1154
   27.265     1159
   27.280     1154
   27.295     1145
   27.310     1199
   27.325     1259
   27.340     1277
   27.355     1376
   27.370     1337
   27.385     1333
   27.400     1308
   27.415     1248
   27.430     1249
   27.445     1269
   27.460     1324
   27.475     1325
   27.490     1377
   27.505     1542
   27.520     1631
   27.535     1678
   27.550     1725
   27.565     1658
   27.580     1643
   27.595     1661
   27.610     1728
   27.625     1851
   27.640     2098
   27.655     2311
   27.670     2450
   27.685     2671
   27.700     2952
   27.715     3080
   27.730     3070
   27.745     2978
   27.760     2680
   27.775     2403
   27.790     2121
   27.805     1832
   27.820     1683
   27.835     1520
   27.850     1528
   27.865     1443
   27.880     1461
   27.895     1479
   27.910     1585
   27.925     1676
   27.940     1734
   27.955     1744
   27.970     1911
   27.985     2008
   28.000     2080
   28.015     2015
   28.030     1885
   28.045     1750
   28.060     1546
   28.075     1468
   28.090     1439
   28.105     1452
   28.120     1470
   28.135     1465
   28.150     1435
   28.165     1387
   28.180     1354
   28.195     1385
   28.210     1391
   28.225     1460
   28.240     1434
   28.255     1336
   28.270     1258
   28.285     1311
   28.300     1270
   28.315     1294
   28.330     1339
   28.345     1441
   28.360     1558
   28.375     1612
   28.390     1584
   28.405     1648
   28.420     1723
   28.435     1730
   28.450     1750
   28.465     1751
   28.480     1775
   28.495     1766
   28.510     1827
   28.525     1782
   28.540     1729
   28.555     1599
   28.570     1481
   28.585     1335
   28.600     1253
   28.615     1201
   28.630     1157
   28.645     1088
   28.660     1013
   28.675     1085
   28.690     1093
   28.705     1092
   28.720     1182
   28.735     1259
   28.750     1355
   28.765     1368
   28.780     1345
   28.795     1308
   28.810     1296
   28.825     1239
   28.840     1207
   28.855     1157
   28.870     1200
   28.885     1229
   28.900     1252
   28.915     1348
   28.930     1381
   28.945     1408
   28.960     1502
   28.975     1656
   28.990     1644
   29.005     1701
   29.020     1606
   29.035     1548
   29.050     1569
   29.065     1640
   29.080     1658
   29.095     1638
   29.110     1679
   29.125     1648
   29.140     1795
   29.155     1909
   29.170     1934
   29.185     1875
   29.200     1798
   29.215     1655
   29.230     1554
   29.245     1509
   29.260     1459
   29.275     1419
   29.290     1372
   29.305     1402
   29.320     1379
   29.335     1434
   29.350     1445
   29.365     1449
   29.380     1420
   29.395     1379
   29.410     1241
   29.425     1241
   29.440     1202
   29.455     1239
   29.470     1264
   29.485     1227
   29.500     1190
   29.515     1138
   29.530     1095
   29.545     1128
   29.560     1110
   29.575     1168
   29.590     1198
   29.605     1239
   29.620     1239
   29.635     1267
   29.650     1397
   29.665     1443
   29.680     1531
   29.695     1612
   29.710     1621
   29.725     1514
   29.740     1548
   29.755     1562
   29.770     1620
   29.785     1819
   29.800     1882
   29.815     1839
   29.830     1794
   29.845     1712
   29.860     1547
   29.875     1478
   29.890     1475
   29.905     1479
   29.920     1411
   29.935     1280
   29.950     1248
   29.965     1198
   29.980     1229
   29.995     1207
   30.010     1162
   30.025     1112
   30.040     1035
   30.055     1064
   30.070     1038
   30.085     1000
   30.100     1034
   30.115     1058
   30.130     1057
   30.145     1092
   30.160      992
   30.175     1026
   30.190     1045
   30.205     1044
   30.220     1020
   30.235     1027
   30.250     1045
   30.265     1043
   30.280     1010
   30.295     1058
   30.310     1124
   30.325     1041
   30.340     1142
   30.355     1199
   30.370     1195
   30.385     1182
   30.400     1153
   30.415     1145
   30.430     1094
   30.445     1101
   30.460     1100
   30.475     1073
   30.490     1105
   30.505     1153
   30.520     1192
   30.535     1258
   30.550     1267
   30.565     1310
   30.580     1348
   30.595     1365
   30.610     1341
   30.625     1392
   30.640     1479
   30.655     1510
   30.670     1534
   30.685     1552
   30.700     1546
   30.715     1518
   30.730     1467
   30.745     1495
   30.760     1469
   30.775     1541
   30.790     1503
   30.805     1459
   30.820     1431
   30.835     1350
   30.850     1295
   30.865     1248
   30.880     1200
   30.895     1199
   30.910     1173
   30.925     1121
   30.940     1158
   30.955     1159
   30.970     1168
   30.985     1217
   31.000     1223
   31.015     1392
   31.030     1455
   31.045     1501
   31.060     1453
   31.075     1389
   31.090     1478
   31.105     1637
   31.120     1661
   31.135     1638
   31.150     1658
   31.165     1656
   31.180     1508
   31.195     1363
   31.210     1356
   31.225     1246
   31.240     1199
   31.255     1200
   31.270     1121
   31.285     1116
   31.300     1196
   31.315     1199
   31.330     1227
   31.345     1244
   31.360     1275
   31.375     1243
   31.390     1255
   31.405     1218
   31.420     1277
   31.435     1305
   31.450     1304
   31.465     1350
   31.480     1353
   31.495     1305
   31.510     1278
   31.525     1391
   31.540     1427
   31.555     1323
   31.570     1306
   31.585     1273
   31.600     1278
   31.615     1303
   31.630     1313
   31.645     1375
   31.660     1443
   31.675     1432
   31.690     1457
   31.705     1475
   31.720     1490
   31.735     1559
   31.750     1552
   31.765     1519
   31.780     1494
   31.795     1508
   31.810     1624
   31.825     1608
   31.840     1691
   31.855     1772
   31.870     1733
   31.885     1731
   31.900     1653
   31.915     1593
   31.930     1555
   31.945     1479
   31.960     1497
   31.975     1490
   31.990     1477
   32.005     1553
   32.020     1554
   32.035     1511
   32.050     1541
   32.065     1570
   32.080     1564
   32.095     1491
   32.110     1462
   32.125     1403
   32.140     1308
   32.155     1247
   32.170     1292
   32.185     1311
   32.200     1354
   32.215     1417
   32.230     1476
   32.245     1520
   32.260     1470
   32.275     1467
   32.290     1377
   32.305     1307
   32.320     1269
   32.335     1133
   32.350     1146
   32.365     1149
   32.380     1168
   32.395     1178
   32.410     1135
   32.425     1181
   32.440     1152
   32.455     1134
   32.470     1094
   32.485     1135
   32.500     1169
   32.515     1198
   32.530     1217
   32.545     1236
   32.560     1208
   32.575     1198
   32.590     1129
   32.605     1067
   32.620      995
   32.635      982
   32.650     1004
   32.665      994
   32.680     1009
   32.695      998
   32.710     1055
   32.725      973
   32.740     1020
   32.755     1043
   32.770     1049
   32.785      990
   32.800     1020
   32.815     1015
   32.830     1033
   32.845      999
   32.860      979
   32.875      956
   32.890      967
   32.905      953
   32.920      983
   32.935      999
   32.950     1028
   32.965     1071
   32.980     1081
   32.995     1166
   33.010     1228
   33.025     1250
   33.040     1329
   33.055     1463
   33.070     1448
   33.085     1470
   33.100     1434
   33.115     1428
   33.130     1377
   33.145     1368
   33.160     1309
   33.175     1263
   33.190     1209
   33.205     1173
   33.220     1152
   33.235     1139
   33.250     1149
   33.265     1150
   33.280     1174
   33.295     1202
   33.310     1231
   33.325     1178
   33.340     1168
   33.355     1142
   33.370     1148
   33.385     1166
   33.400     1179
   33.415     1222
   33.430     1238
   33.445     1287
   33.460     1265
   33.475     1334
   33.490     1304
   33.505     1316
   33.520     1326
   33.535     1345
   33.550     1364
   33.565     1426
   33.580     1508
   33.595     1587
   33.610     1683
   33.625     1768
   33.640     1754
   33.655     1761
   33.670     1665
   33.685     1565
   33.700     1474
   33.715     1369
   33.730     1431
   33.745     1391
   33.760     1416
   33.775     1412
   33.790     1322
   33.805     1307
   33.820     1318
   33.835     1272
   33.850     1256
   33.865     1229
   33.880     1271
   33.895     1315
   33.910     1414
   33.925     1531
   33.940     1668
   33.955     1654
   33.970     1610
   33.985     1523
   34.000     1441
   34.015     1334
   34.030     1332
   34.045     1264
   34.060     1268
   34.075     1290
   34.090     1314
   34.105     1360
   34.120     1316
   34.135     1303
   34.150     1291
   34.165     1356
   34.180     1380
   34.195     1425
   34.210     1365
   34.225     1370
   34.240     1288
   34.255     1296
   34.270     1191
   34.285     1177
   34.300     1105
   34.315     1072
   34.330     1088
   34.345     1000
   34.360     1024
   34.375      977
   34.390      990
   34.405      989
   34.420      991
   34.435      969
   34.450      967
   34.465      946
   34.480      976
   34.495     1021
   34.510     1050
   34.525     1087
   34.540      995
   34.555     1051
   34.570     1074
   34.585     1098
   34.600     1134
   34.615     1188
   34.630     1253
   34.645     1254
   34.660     1181
   34.675     1210
   34.690     1139
   34.705     1052
   34.720     1054
   34.735     1020
   34.750      959
   34.765      938
   34.780      908
   34.795      953
   34.810      965
   34.825      958
   34.840      992
   34.855     1026
   34.870     1027
   34.885     1057
   34.900     1123
   34.915     1118
   34.930     1116
   34.945     1155
   34.960     1153
   34.975     1145
   34.990     1162
   35.005     1065
   35.020     1017
   35.035      984
   35.050      987
   35.065      967
   35.080     1002
   35.095     1009
   35.110     1012
   35.125     1024
   35.140     1034
   35.155     1086
   35.170     1104
   35.185     1138
   35.200     1166
   35.215     1143
   35.230     1138
   35.245     1093
   35.260     1092
   35.275     1104
   35.290     1073
   35.305     1088
   35.320     1119
   35.335     1141
   35.350     1155
   35.365     1211
   35.380     1243
   35.395     1283
   35.410     1258
   35.425     1226
   35.440     1248
   35.455     1250
   35.470     1188
   35.485     1257
   35.500     1279
   35.515     1293
   35.530     1315
   35.545     1385
   35.560     1368
   35.575     1405
   35.590     1397
   35.605     1460
   35.620     1455
   35.635     1435
   35.650     1438
   35.665     1425
   35.680     1460
   35.695     1547
   35.710     1530
   35.725     1516
   35.740     1518
   35.755     1479
   35.770     1448
   35.785     1283
   35.800     1239
   35.815     1244
   35.830     1195
   35.845     1120
   35.860     1123
   35.875     1090
   35.890     1054
   35.905     1015
   35.920     1021
   35.935     1019
   35.950     1008
   35.965     1020
   35.980      982
   35.995      983
   36.010      922
   36.025      974
   36.040      964
   36.055      918
   36.070      960
   36.085      932
   36.100      935
   36.115      924
   36.130      901
   36.145      925
   36.160      935
   36.175      892
   36.190      944
   36.205      974
   36.220      981
   36.235      931
   36.250      967
   36.265     1000
   36.280      954
   36.295     1031
   36.310      985
   36.325      958
   36.340      972
   36.355      948
   36.370      991
   36.385      970
   36.400     1025
   36.415     1081
   36.430     1146
   36.445     1140
   36.460     1177
   36.475     1152
   36.490     1065
   36.505      998
   36.520      989
   36.535      934
   36.550      977
   36.565      941
   36.580      902
   36.595      954
   36.610      940
   36.625      979
   36.640      977
   36.655     1035
   36.670     1048
   36.685     1038
   36.700     1007
   36.715     1023
   36.730     1006
   36.745      979
   36.760      999
   36.775      978
   36.790      923
   36.805      918
   36.820      940
   36.835      966
   36.850      943
   36.865      973
   36.880     1053
   36.895     1137
   36.910     1162
   36.925     1206
   36.940     1240
   36.955     1250
   36.970     1184
   36.985     1154
   37.000     1090
   37.015     1096
   37.030     1098
   37.045     1076
   37.060     1058
   37.075     1042
   37.090     1049
   37.105      996
   37.120      986
   37.135      983
   37.150      992
   37.165     1023
   37.180     1073
   37.195     1090
   37.210     1044
   37.225     1078
   37.240     1143
   37.255     1140
   37.270     1114
   37.285     1094
   37.300     1075
   37.315     1032
   37.330     1060
   37.345     1056
   37.360     1073
   37.375     1120
   37.390     1177
   37.405     1141
   37.420     1210
   37.435     1189
   37.450     1174
   37.465     1137
   37.480     1037
   37.495     1007
   37.510      932
   37.525      911
   37.540      886
   37.555      870
   37.570      887
   37.585      828
   37.600      821
   37.615      852
   37.630      873
   37.645      886
   37.660      868
   37.675      857
   37.690      880
   37.705      909
   37.720      887
   37.735      930
   37.750      967
   37.765      963
   37.780      975
   37.795      998
   37.810     1030
   37.825     1007
   37.840      949
   37.855      945
   37.870      924
   37.885      880
   37.900      908
   37.915      931
   37.930      896
   37.945      915
   37.960      969
   37.975      937
   37.990      966
   38.005      972
   38.020     1000
   38.035     1047
   38.050     1019
   38.065      978
   38.080      969
   38.095      963
   38.110      927
   38.125      902
   38.140      949
   38.155     1028
   38.170     1050
   38.185     1070
   38.200     1059
   38.215     1033
   38.230     1003
   38.245      980
   38.260      930
   38.275      874
   38.290      876
   38.305      905
   38.320      882
   38.335      986
   38.350     1000
   38.365     1024
   38.380      947
   38.395      953
   38.410      980
   38.425      986
   38.440      953
   38.455      960
   38.470     1043
   38.485     1100
   38.500     1176
   38.515     1259
   38.530     1198
   38.545     1183
   38.560     1088
   38.575     1015
   38.590      997
   38.605      907
   38.620      850
   38.635      845
   38.650      915
   38.665      913
   38.680      905
   38.695      950
   38.710      929
   38.725      943
   38.740      908
   38.755      861
   38.770      948
   38.785      979
   38.800      986
   38.815      981
   38.830     1011
   38.845      989
   38.860      944
   38.875      961
   38.890     1017
   38.905     1027
   38.920     1020
   38.935     1000
   38.950     1026
   38.965     1021
   38.980     1076
   38.995     1058
   39.010     1058
   39.025     1066
   39.040     1063
   39.055     1061
   39.070     1014
   39.085      984
   39.100     1007
   39.115      968
   39.130     1023
   39.145     1008
   39.160      950
   39.175      916
   39.190      931
   39.205      920
   39.220      917
   39.235      979
   39.250      917
   39.265      896
   39.280      951
   39.295      941
   39.310      949
   39.325      926
   39.340      851
   39.355      844
   39.370      847
   39.385      902
   39.400      910
   39.415      898
   39.430      920
   39.445      881
   39.460      845
   39.475      872
   39.490      818
   39.505      844
   39.520      813
   39.535      860
   39.550      828
   39.565      801
   39.580      858
   39.595      815
   39.610      810
   39.625      811
   39.640      824
   39.655      802
   39.670      835
   39.685      833
   39.700      842
   39.715      833
   39.730      820
   39.745      892
   39.760      889
   39.775      857
   39.790      798
   39.805      833
   39.820      887
   39.835      892
   39.850      884
   39.865      951
   39.880      981
   39.895     1023
   39.910     1020
   39.925     1008
   39.940     1014
   39.955     1040
   39.970     1045
   39.985     1035
   40.000      993
   40.015      990
   40.030      999
   40.045      998
   40.060     1017
   40.075     1008
   40.090      992
   40.105      986
   40.120      979
   40.135      931
   40.150      899
   40.165      868
   40.180      884
   40.195      911
   40.210      892
   40.225      868
   40.240      879
   40.255      857
   40.270      830
   40.285      892
   40.300      900
   40.315      917
   40.330      939
   40.345      944
   40.360      983
   40.375      983
   40.390      927
   40.405      888
   40.420      890
   40.435      826
   40.450      870
   40.465      900
   40.480      900
   40.495      927
   40.510     1005
   40.525     1020
   40.540     1043
   40.555     1061
   40.570      987
   40.585      958
   40.600      940
   40.615      939
   40.630      965
   40.645      939
   40.660      986
   40.675     1013
   40.690      974
   40.705      980
   40.720      928
   40.735      905
   40.750      924
   40.765      900
   40.780      886
   40.795      921
   40.810      860
   40.825      908
   40.840      895
   40.855      886
   40.870      911
   40.885      925
   40.900      932
   40.915      964
   40.930      962
   40.945      993
   40.960      957
   40.975      976
   40.990      919
   41.005      908
   41.020      902
   41.035      896
   41.050      914
   41.065      872
   41.080      819
   41.095      844
   41.110      806
   41.125      790
   41.140      815
   41.155      813
   41.170      810
   41.185      804
   41.200      825
   41.215      833
   41.230      846
   41.245      808
   41.260      829
   41.275      836
   41.290      846
   41.305      855
   41.320      859
   41.335      806
   41.350      854
   41.365      813
   41.380      859
   41.395      815
   41.410      828
   41.425      845
   41.440      803
   41.455      792
   41.470      811
   41.485      792
   41.500      805
   41.515      802
   41.530      784
   41.545      772
   41.560      814
   41.575      822
   41.590      820
   41.605      850
   41.620      825
   41.635      823
   41.650      844
   41.665      854
   41.680      843
   41.695      849
   41.710      813
   41.725      824
   41.740      785
   41.755      759
   41.770      772
   41.785      765
   41.800      813
   41.815      794
   41.830      804
   41.845      803
   41.860      856
   41.875      847
   41.890      839
   41.905      844
   41.920      902
   41.935      891
   41.950      903
   41.965      897
   41.980      951
   41.995      920
   42.010      864
   42.025      850
   42.040      875
   42.055      834
   42.070      810
   42.085      800
   42.100      828
   42.115      766
   42.130      768
   42.145      833
   42.160      841
   42.175      827
   42.190      849
   42.205      805
   42.220      842
   42.235      879
   42.250      841
   42.265      872
   42.280      817
   42.295      795
   42.310      809
   42.325      832
   42.340      802
   42.355      808
   42.370      846
   42.385      808
   42.400      840
   42.415      788
   42.430      814
   42.445      867
   42.460      861
   42.475      879
   42.490      865
   42.505      870
   42.520      938
   42.535      894
   42.550      893
   42.565      884
   42.580      928
   42.595      891
   42.610      877
   42.625      931
   42.640      888
   42.655      862
   42.670      884
   42.685      881
   42.700      836
   42.715      793
   42.730      823
   42.745      774
   42.760      753
   42.775      830
   42.790      799
   42.805      799
   42.820      808
   42.835      765
   42.850      803
   42.865      750
   42.880      780
   42.895      766
   42.910      763
   42.925      795
   42.940      758
   42.955      799
   42.970      794
   42.985      800
   43.000      796
   43.015      769
   43.030      799
   43.045      813
   43.060      792
   43.075      735
   43.090      748
   43.105      740
   43.120      766
   43.135      785
   43.150      780
   43.165      774
   43.180      801
   43.195      806
   43.210      802
   43.225      759
   43.240      757
   43.255      750
   43.270      772
   43.285      765
   43.300      755
   43.315      773
   43.330      830
   43.345      815
   43.360      789
   43.375      807
   43.390      821
   43.405      889
   43.420      853
   43.435      855
   43.450      801
   43.465      812
   43.480      791
   43.495      832
   43.510      829
   43.525      761
   43.540      780
   43.555      772
   43.570      768
   43.585      735
   43.600      773
   43.615      768
   43.630      731
   43.645      741
   43.660      738
   43.675      762
   43.690      759
   43.705      776
   43.720      761
   43.735      772
   43.750      764
   43.765      773
   43.780      779
   43.795      832
   43.810      794
   43.825      738
   43.840      764
   43.855      790
   43.870      831
   43.885      812
   43.900      757
   43.915      758
   43.930      773
   43.945      787
   43.960      759
   43.975      789
   43.990      779
   44.005      758
   44.020      765
   44.035      745
   44.050      760
   44.065      783
   44.080      792
   44.095      839
   44.110      804
   44.125      803
   44.140      796
   44.155      818
   44.170      792
   44.185      785
   44.200      825
   44.215      841
   44.230      829
   44.245      818
   44.260      855
   44.275      898
   44.290      900
   44.305      913
   44.320      970
   44.335      913
   44.350      915
   44.365      924
   44.380      878
   44.395      921
   44.410      895
   44.425      894
   44.440      886
   44.455      880
   44.470      894
   44.485      894
   44.500      901
   44.515      852
   44.530      778
   44.545      805
   44.560      807
   44.575      840
   44.590      775
   44.605      809
   44.620      809
   44.635      814
   44.650      873
   44.665      845
   44.680      808
   44.695      823
   44.710      796
   44.725      772
   44.740      818
   44.755      764
   44.770      802
   44.785      797
   44.800      752
   44.815      807
   44.830      805
   44.845      798
   44.860      793
   44.875      807
   44.890      810
   44.905      819
   44.920      797
   44.935      876
   44.950      887
   44.965      901
   44.980      885
   44.995      887
   45.010      858
   45.025      869
   45.040      864
   45.055      853
   45.070      851
   45.085      845
   45.100      822
   45.115      856
   45.130      877
   45.145      891
   45.160      929
   45.175      935
   45.190      920
   45.205      952
   45.220      919
   45.235      927
   45.250      926
   45.265      924
   45.280      925
   45.295      909
   45.310      892
   45.325      874
   45.340      875
   45.355      885
   45.370      904
   45.385      829
   45.400      856
   45.415      884
   45.430      814
   45.445      784
   45.460      806
   45.475      834
   45.490      807
   45.505      805
   45.520      808
   45.535      828
   45.550      819
   45.565      824
   45.580      802
   45.595      837
   45.610      814
   45.625      840
   45.640      825
   45.655      863
   45.670      844
   45.685      841
   45.700      892
   45.715      858
   45.730      824
   45.745      822
   45.760      847
   45.775      870
   45.790      845
   45.805      812
   45.820      802
   45.835      758
   45.850      768
   45.865      750
   45.880      738
   45.895      786
   45.910      783
   45.925      749
   45.940      750
   45.955      737
   45.970      747
   45.985      739
   46.000      730
   46.015      729
   46.030      722
   46.045      724
   46.060      751
   46.075      736
   46.090      789
   46.105      724
   46.120      785
   46.135      781
   46.150      783
   46.165      768
   46.180      761
   46.195      692
   46.210      718
   46.225      781
   46.240      767
   46.255      742
   46.270      738
   46.285      767
   46.300      782
   46.315      796
   46.330      806
   46.345      753
   46.360      733
   46.375      747
   46.390      765
   46.405      770
   46.420      800
   46.435      784
   46.450      779
   46.465      778
   46.480      770
   46.495      758
   46.510      763
   46.525      755
   46.540      741
   46.555      747
   46.570      765
   46.585      746
   46.600      769
   46.615      735
   46.630      776
   46.645      773
   46.660      757
   46.675      730
   46.690      747
   46.705      766
   46.720      737
   46.735      776
   46.750      734
   46.765      760
   46.780      773
   46.795      720
   46.810      719
   46.825      727
   46.840      761
   46.855      696
   46.870      720
   46.885      711
   46.900      718
   46.915      712
   46.930      684
   46.945      689
   46.960      659
   46.975      701
   46.990      698
   47.005      685
   47.020      698
   47.035      702
   47.050      735
   47.065      667
   47.080      718
   47.095      703
   47.110      698
   47.125      714
   47.140      710
   47.155      693
   47.170      698
   47.185      643
   47.200      716
   47.215      707
   47.230      661
   47.245      707
   47.260      726
   47.275      711
   47.290      688
   47.305      706
   47.320      698
   47.335      694
   47.350      726
   47.365      742
   47.380      729
   47.395      669
   47.410      674
   47.425      686
   47.440      692
   47.455      679
   47.470      686
   47.485      669
   47.500      641
   47.515      663
   47.530      698
   47.545      707
   47.560      686
   47.575      687
   47.590      706
   47.605      672
   47.620      691
   47.635      685
   47.650      733
   47.665      679
   47.680      716
   47.695      754
   47.710      720
   47.725      738
   47.740      692
   47.755      694
   47.770      712
   47.785      711
   47.800      767
   47.815      754
   47.830      732
   47.845      731
   47.860      696
   47.875      697
   47.890      690
   47.905      703
   47.920      682
   47.935      682
   47.950      669
   47.965      691
   47.980      671
   47.995      672
   48.010      706
   48.025      696
   48.040      687
   48.055      693
   48.070      675
   48.085      660
   48.100      693
   48.115      686
   48.130      688
   48.145      713
   48.160      636
   48.175      717
   48.190      677
   48.205      701
   48.220      725
   48.235      705
   48.250      692
   48.265      718
   48.280      678
   48.295      643
   48.310      687
   48.325      660
   48.340      724
   48.355      672
   48.370      660
   48.385      699
   48.400      699
   48.415      650
   48.430      633
   48.445      643
   48.460      681
   48.475      640
   48.490      639
   48.505      671
   48.520      686
   48.535      688
   48.550      689
   48.565      726
   48.580      729
   48.595      722
   48.610      723
   48.625      706
   48.640      697
   48.655      680
   48.670      654
   48.685      670
   48.700      676
   48.715      652
   48.730      662
   48.745      649
   48.760      671
   48.775      641
   48.790      675
   48.805      667
   48.820      661
   48.835      646
   48.850      680
   48.865      691
   48.880      695
   48.895      670
   48.910      636
   48.925      631
   48.940      666
   48.955      687
   48.970      645
   48.985      616
   49.000      666
   49.015      701
   49.030      662
   49.045      654
   49.060      660
   49.075      687
   49.090      680
   49.105      667
   49.120      657
   49.135      638
   49.150      629
   49.165      623
   49.180      641
   49.195      650
   49.210      635
   49.225      643
   49.240      684
   49.255      659
   49.270      651
   49.285      662
   49.300      689
   49.315      657
   49.330      659
   49.345      690
   49.360      695
   49.375      685
   49.390      692
   49.405      651
   49.420      631
   49.435      647
   49.450      687
   49.465      683
   49.480      670
   49.495      657
   49.510      696
   49.525      628
   49.540      651
   49.555      692
   49.570      701
   49.585      636
   49.600      657
   49.615      708
   49.630      655
   49.645      659
   49.660      658
   49.675      618
   49.690      612
   49.705      618
   49.720      650
   49.735      617
   49.750      634
   49.765      648
   49.780      655
   49.795      632
   49.810      593
   49.825      608
   49.840      631
   49.855      644
   49.870      610
   49.885      602
   49.900      612
   49.915      634
   49.930      679
   49.945      685
   49.960      625
   49.975      638
   49.990      630
   50.005      652
   50.020      636
   50.035      641
   50.050      704
   50.065      705
   50.080      670
   50.095      660
   50.110      648
   50.125      664
   50.140      645
   50.155      657
   50.170      657
   50.185      666
   50.200      636
   50.215      650
   50.230      706
   50.245      736
   50.260      680
   50.275      667
   50.290      685
   50.305      712
   50.320      682
   50.335      673
   50.350      716
   50.365      711
   50.380      652
   50.395      632
   50.410      662
   50.425      667
   50.440      665
   50.455      630
   50.470      628
   50.485      667
   50.500      669
   50.515      663
   50.530      697
   50.545      699
   50.560      672
   50.575      659
   50.590      678
   50.605      647
   50.620      673
   50.635      647
   50.650      677
   50.665      651
   50.680      660
   50.695      643
   50.710      631
   50.725      618
   50.740      638
   50.755      624
   50.770      615
   50.785      631
   50.800      656
   50.815      606
   50.830      590
   50.845      613
   50.860      636
   50.875      629
   50.890      621
   50.905      616
   50.920      674
   50.935      656
   50.950      646
   50.965      602
   50.980      651
   50.995      641
   51.010      638
   51.025      627
   51.040      685
   51.055      695
   51.070      641
   51.085      636
   51.100      626
   51.115      610
   51.130      615
   51.145      629
   51.160      616
   51.175      625
   51.190      619
   51.205      622
   51.220      626
   51.235      672
   51.250      650
   51.265      650
   51.280      639
   51.295      649
   51.310      609
   51.325      631
   51.340      635
   51.355      628
   51.370      619
   51.385      632
   51.400      621
   51.415      614
   51.430      638
   51.445      631
   51.460      596
   51.475      614
   51.490      648
   51.505      643
   51.520      627
   51.535      603
   51.550      643
   51.565      641
   51.580      655
   51.595      634
   51.610      617
   51.625      603
   51.640      615
   51.655      645
   51.670      601
   51.685      625
   51.700      623
   51.715      643
   51.730      608
   51.745      597
   51.760      640
   51.775      619
   51.790      634
   51.805      630
   51.820      621
   51.835      624
   51.850      605
   51.865      608
   51.880      668
   51.895      641
   51.910      684
   51.925      684
   51.940      697
   51.955      698
   51.970      678
   51.985      682
   52.000      668
   52.015      661
   52.030      648
   52.045      647
   52.060      630
   52.075      686
   52.090      661
   52.105      660
   52.120      653
   52.135      672
   52.150      646
   52.165      676
   52.180      681
   52.195      669
   52.210      673
   52.225      662
   52.240      657
   52.255      687
   52.270      642
   52.285      643
   52.300      624
   52.315      609
   52.330      642
   52.345      660
   52.360      661
   52.375      671
   52.390      639
   52.405      645
   52.420      645
   52.435      641
   52.450      608
   52.465      623
   52.480      642
   52.495      603
   52.510      628
   52.525      600
   52.540      584
   52.555      612
   52.570      595
   52.585      632
   52.600      646
   52.615      650
   52.630      570
   52.645      586
   52.660      603
   52.675      569
   52.690      594
   52.705      595
   52.720      615
   52.735      647
   52.750      616
   52.765      624
   52.780      635
   52.795      655
   52.810      646
   52.825      595
   52.840      625
   52.855      666
   52.870      615
   52.885      603
   52.900      605
   52.915      606
   52.930      624
   52.945      649
   52.960      658
   52.975      642
   52.990      678
   53.005      636
   53.020      655
   53.035      661
   53.050      633
   53.065      629
   53.080      612
   53.095      649
   53.110      668
   53.125      676
   53.140      648
   53.155      686
   53.170      709
   53.185      660
   53.200      634
   53.215      652
   53.230      663
   53.245      625
   53.260      611
   53.275      643
   53.290      658
   53.305      612
   53.320      630
   53.335      651
   53.350      641
   53.365      676
   53.380      619
   53.395      622
   53.410      637
   53.425      656
   53.440      615
   53.455      656
   53.470      710
   53.485      661
   53.500      705
   53.515      722
   53.530      702
   53.545      679
   53.560      643
   53.575      662
   53.590      659
   53.605      677
   53.620      651
   53.635      651
   53.650      660
   53.665      707
   53.680      656
   53.695      626
   53.710      611
   53.725      669
   53.740      652
   53.755      645
   53.770      622
   53.785      610
   53.800      598
   53.815      618
   53.830      639
   53.845      622
   53.860      640
   53.875      651
   53.890      623
   53.905      605
   53.920      645
   53.935      623
   53.950      605
   53.965      596
   53.980      626
   53.995      634
   54.010      645
   54.025      625
   54.040      610
   54.055      613
   54.070      627
   54.085      592
   54.100      610
   54.115      602
   54.130      584
   54.145      597
   54.160      617
   54.175      616
   54.190      634
   54.205      647
   54.220      662
   54.235      651
   54.250      660
   54.265      653
   54.280      704
   54.295      697
   54.310      631
   54.325      620
   54.340      632
   54.355      646
   54.370      627
   54.385      616
   54.400      629
   54.415      631
   54.430      649
   54.445      620
   54.460      630
   54.475      622
   54.490      637
   54.505      629
   54.520      656
   54.535      616
   54.550      614
   54.565      645
   54.580      657
   54.595      658
   54.610      607
   54.625      599
   54.640      621
   54.655      636
   54.670      601
   54.685      621
   54.700      606
   54.715      600
   54.730      615
   54.745      610
   54.760      597
