    4.000      206
    4.015      213
    4.030      199
    4.045      214
    4.060      212
    4.075      198
    4.090      200
    4.105      195
    4.120      215
    4.135      221
    4.150      198
    4.165      201
    4.180      212
    4.195      189
    4.210      200
    4.225      198
    4.240      200
    4.255      192
    4.270      208
    4.285      192
    4.300      180
    4.315      206
    4.330      201
    4.345      189
    4.360      197
    4.375      202
    4.390      196
    4.405      184
    4.420      195
    4.435      190
    4.450      184
    4.465      187
    4.480      196
    4.495      190
    4.510      204
    4.525      182
    4.540      205
    4.555      188
    4.570      201
    4.585      190
    4.600      192
    4.615      169
    4.630      211
    4.645      218
    4.660      211
    4.675      201
    4.690      194
    4.705      184
    4.720      207
    4.735      188
    4.750      196
    4.765      187
    4.780      204
    4.795      187
    4.810      185
    4.825      192
    4.840      204
    4.855      213
    4.870      197
    4.885      192
    4.900      188
    4.915      199
    4.930      190
    4.945      195
    4.960      194
    4.975      189
    4.990      194
    5.005      187
    5.020      189
    5.035      195
    5.050      188
    5.065      201
    5.080      195
    5.095      196
    5.110      186
    5.125      181
    5.140      175
    5.155      194
    5.170      188
    5.185      181
    5.200      193
    5.215      189
    5.230      184
    5.245      209
    5.260      200
    5.275      207
    5.290      182
    5.305      179
    5.320      202
    5.335      196
    5.350      192
    5.365      176
    5.380      178
    5.395      173
    5.410      177
    5.425      155
    5.440      175
    5.455      174
    5.470      176
    5.485      184
    5.500      184
    5.515      188
    5.530      176
    5.545      187
    5.560      198
    5.575      196
    5.590      190
    5.605      184
    5.620      183
    5.635      190
    5.650      185
    5.665      215
    5.680      181
    5.695      183
    5.710      205
    5.725      175
    5.740      163
    5.755      177
    5.770      204
    5.785      191
    5.800      173
    5.815      187
    5.830      168
    5.845      185
    5.860      170
    5.875      163
    5.890      164
    5.905      176
    5.920      187
    5.935      189
    5.950      173
    5.965      180
    5.980      216
    5.995      203
    6.010      176
    6.025      178
    6.040      197
    6.055      156
    6.070      174
    6.085      171
    6.100      165
    6.115      155
    6.130      163
    6.145      187
    6.160      188
    6.175      203
    6.190      192
    6.205      194
    6.220      173
    6.235      209
    6.250      200
    6.265      196
    6.280      213
    6.295      221
    6.310      221
    6.325      225
    6.340      227
    6.355      227
    6.370      219
    6.385      243
    6.400      260
    6.415      277
    6.430      282
    6.445      299
    6.460      312
    6.475      310
    6.490      361
    6.505      392
    6.520      423
    6.535      386
    6.550      368
    6.565      435
    6.580      443
    6.595      386
    6.610      284
    6.625      239
    6.640      182
    6.655      174
    6.670      188
    6.685      180
    6.700      174
    6.715      192
    6.730      178
    6.745      187
    6.760      168
    6.775      182
    6.790      186
    6.805      191
    6.820      191
    6.835      176
    6.850      202
    6.865      198
    6.880      154
    6.895      179
    6.910      216
    6.925      200
    6.940      174
    6.955      189
    6.970      218
    6.985      217
    7.000      214
    7.015      186
    7.030      209
    7.045      219
    7.060      236
    7.075      277
    7.090      280
    7.105      269
    7.120      250
    7.135      226
    7.150      194
    7.165      181
    7.180      176
    7.195      174
    7.210      168
    7.225      185
    7.240      185
    7.255      167
    7.270      180
    7.285      179
    7.300      197
    7.315      182
    7.330      152
    7.345      178
    7.360      190
    7.375      179
    7.390      175
    7.405      179
    7.420      191
    7.435      191
    7.450      200
    7.465      186
    7.480      197
    7.495      204
    7.510      212
    7.525      208
    7.540      240
    7.555      237
    7.570      246
    7.585      234
    7.600      215
    7.615      195
    7.630      191
    7.645      167
    7.660      148
    7.675      160
    7.690      182
    7.705      178
    7.720      174
    7.735      186
    7.750      181
    7.765      166
    7.780      162
    7.795      157
    7.810      153
    7.825      164
    7.840      179
    7.855      183
    7.870      180
    7.885      167
    7.900      183
    7.915      183
    7.930      180
    7.945      170
    7.960      161
    7.975      189
    7.990      194
    8.005      163
    8.020      172
    8.035      191
    8.050      173
    8.065      165
    8.080      175
    8.095      163
    8.110      172
    8.125      171
    8.140      174
    8.155      166
    8.170      171
    8.185      186
    8.200      178
    8.215      192
    8.230      179
    8.245      169
    8.260      180
    8.275      179
    8.290      169
    8.305      169
    8.320      170
    8.335      175
    8.350      170
    8.365      158
    8.380      170
    8.395      181
    8.410      167
    8.425      183
    8.440      181
    8.455      177
    8.470      175
    8.485      181
    8.500      169
    8.515      176
    8.530      177
    8.545      184
    8.560      156
    8.575      177
    8.590      184
    8.605      184
    8.620      204
    8.635      184
    8.650      179
    8.665      176
    8.680      183
    8.695      209
    8.710      181
    8.725      185
    8.740      172
    8.755      168
    8.770      178
    8.785      184
    8.800      192
    8.815      176
    8.830      195
    8.845      177
    8.860      174
    8.875      153
    8.890      190
    8.905      185
    8.920      175
    8.935      184
    8.950      188
    8.965      190
    8.980      168
    8.995      179
    9.010      192
    9.025      190
    9.040      163
    9.055      193
    9.070      204
    9.085      175
    9.100      178
    9.115      174
    9.130      197
    9.145      178
    9.160      190
    9.175      201
    9.190      182
    9.205      190
    9.220      166
    9.235      181
    9.250      189
    9.265      174
    9.280      170
    9.295      191
    9.310      202
    9.325      189
    9.340      189
    9.355      212
    9.370      215
    9.385      180
    9.400      170
    9.415      185
    9.430      175
    9.445      174
    9.460      185
    9.475      179
    9.490      189
    9.505      180
    9.520      198
    9.535      200
    9.550      187
    9.565      211
    9.580      204
    9.595      194
    9.610      212
    9.625      199
    9.640      217
    9.655      215
    9.670      220
    9.685      242
    9.700      237
    9.715      231
    9.730      198
    9.745      180
    9.760      191
    9.775      176
    9.790      181
    9.805      187
    9.820      199
    9.835      205
    9.850      199
    9.865      194
    9.880      207
    9.895      203
    9.910      187
    9.925      187
    9.940      181
    9.955      183
    9.970      199
    9.985      197
   10.000      193
   10.015      203
   10.030      196
   10.045      193
   10.060      193
   10.075      175
   10.090      214
   10.105      193
   10.120      186
   10.135      194
   10.150      217
   10.165      238
   10.180      190
   10.195      233
   10.210      245
   10.225      217
   10.240      243
   10.255      260
   10.270      268
   10.285      263
   10.300      271
   10.315      290
   10.330      359
   10.345      400
   10.360      363
   10.375      324
   10.390      254
   10.405      240
   10.420      209
   10.435      190
   10.450      203
   10.465      206
   10.480      182
   10.495      200
   10.510      177
   10.525      198
   10.540      207
   10.555      210
   10.570      205
   10.585      208
   10.600      194
   10.615      198
   10.630      208
   10.645      219
   10.660      233
   10.675      241
   10.690      235
   10.705      244
   10.720      283
   10.735      260
   10.750      247
   10.765      219
   10.780      234
   10.795      225
   10.810      205
   10.825      192
   10.840      182
   10.855      195
   10.870      197
   10.885      204
   10.900      193
   10.915      191
   10.930      197
   10.945      208
   10.960      210
   10.975      236
   10.990      252
   11.005      230
   11.020      242
   11.035      252
   11.050      272
   11.065      317
   11.080      312
   11.095      358
   11.110      358
   11.125      308
   11.140      257
   11.155      216
   11.170      199
   11.185      212
   11.200      217
   11.215      215
   11.230      223
   11.245      224
   11.260      238
   11.275      251
   11.290      257
   11.305      257
   11.320      235
   11.335      198
   11.350      185
   11.365      191
   11.380      181
   11.395      185
   11.410      194
   11.425      191
   11.440      170
   11.455      162
   11.470      173
   11.485      151
   11.500      156
   11.515      164
   11.530      172
   11.545      188
   11.560      191
   11.575      195
   11.590      203
   11.605      179
   11.620      192
   11.635      218
   11.650      226
   11.665      212
   11.680      258
   11.695      230
   11.710      248
   11.725      312
   11.740      298
   11.755      311
   11.770      260
   11.785      217
   11.800      204
   11.815      196
   11.830      227
   11.845      228
   11.860      231
   11.875      215
   11.890      252
   11.905      235
   11.920      267
   11.935      275
   11.950      239
   11.965      225
   11.980      208
   11.995      192
   12.010      183
   12.025      187
   12.040      197
   12.055      180
   12.070      167
   12.085      169
   12.100      179
   12.115      162
   12.130      157
   12.145      183
   12.160      189
   12.175      186
   12.190      200
   12.205      188
   12.220      179
   12.235      191
   12.250      221
   12.265      222
   12.280      237
   12.295      241
   12.310      245
   12.325      276
   12.340      319
   12.355      374
   12.370      427
   12.385      442
   12.400      517
   12.415      613
   12.430      754
   12.445      840
   12.460     1036
   12.475     1224
   12.490     1462
   12.505     1825
   12.520     1993
   12.535     1837
   12.550     1448
   12.565     1243
   12.580     1276
   12.595     1303
   12.610     1297
   12.625     1130
   12.640      873
   12.655      598
   12.670      403
   12.685      298
   12.700      286
   12.715      254
   12.730      251
   12.745      264
   12.760      260
   12.775      269
   12.790      316
   12.805      341
   12.820      352
   12.835      366
   12.850      422
   12.865      486
   12.880      580
   12.895      702
   12.910      690
   12.925      627
   12.940      531
   12.955      509
   12.970      559
   12.985      619
   13.000      753
   13.015      924
   13.030     1128
   13.045     1345
   13.060     1769
   13.075     2146
   13.090     2234
   13.105     1969
   13.120     1704
   13.135     1733
   13.150     1910
   13.165     2265
   13.180     2945
   13.195     3598
   13.210     3513
   13.225     2522
   13.240     1548
   13.255      777
   13.270      528
   13.285      478
   13.300      422
   13.315      403
   13.330      410
   13.345      436
   13.360      510
   13.375      525
   13.390      596
   13.405      690
   13.420      730
   13.435      805
   13.450      884
   13.465      971
   13.480      818
   13.495      611
   13.510      421
   13.525      317
   13.540      254
   13.555      260
   13.570      276
   13.585      276
   13.600      264
   13.615      302
   13.630      293
   13.645      334
   13.660      323
   13.675      390
   13.690      478
   13.705      476
   13.720      402
   13.735      329
   13.750      267
   13.765      224
   13.780      193
   13.795      175
   13.810      191
   13.825      175
   13.840      191
   13.855      181
   13.870      196
   13.885      179
   13.900      180
   13.915      203
   13.930      187
   13.945      178
   13.960      197
   13.975      205
   13.990      219
   14.005      229
   14.020      230
   14.035      228
   14.050      242
   14.065      271
   14.080      291
   14.095      314
   14.110      348
   14.125      388
   14.140      464
   14.155      505
   14.170      470
   14.185      433
   14.200      417
   14.215      430
   14.230      473
   14.245      497
   14.260      525
   14.275      504
   14.290      539
   14.305      639
   14.320      723
   14.335      851
   14.350      993
   14.365      949
   14.380      749
   14.395      524
   14.410      361
   14.425      273
   14.440      241
   14.455      200
   14.470      190
   14.485      187
   14.500      185
   14.515      201
   14.530      182
   14.545      192
   14.560      164
   14.575      176
   14.590      175
   14.605      171
   14.620      206
   14.635      187
   14.650      189
   14.665      176
   14.680      162
   14.695      190
   14.710      208
   14.725      232
   14.740      253
   14.755      275
   14.770      313
   14.785      392
   14.800      450
   14.815      514
   14.830      623
   14.845      762
   14.860      842
   14.875      937
   14.890     1006
   14.905     1094
   14.920     1333
   14.935     1672
   14.950     1823
   14.965     1458
   14.980      919
   14.995      597
   15.010      442
   15.025      350
   15.040      322
   15.055      309
   15.070      316
   15.085      358
   15.100      382
   15.115      407
   15.130      475
   15.145      534
   15.160      622
   15.175      646
   15.190      563
   15.205      484
   15.220      427
   15.235      427
   15.250      368
   15.265      337
   15.280      298
   15.295      307
   15.310      308
   15.325      301
   15.340      305
   15.355      383
   15.370      393
   15.385      443
   15.400      535
   15.415      607
   15.430      691
   15.445      703
   15.460      620
   15.475      490
   15.490      355
   15.505      334
   15.520      362
   15.535      375
   15.550      426
   15.565      451
   15.580      477
   15.595      531
   15.610      604
   15.625      721
   15.640      651
   15.655      589
   15.670      421
   15.685      326
   15.700      274
   15.715      225
   15.730      213
   15.745      237
   15.760      245
   15.775      272
   15.790      268
   15.805      265
   15.820      285
   15.835      315
   15.850      345
   15.865      360
   15.880      395
   15.895      462
   15.910      558
   15.925      663
   15.940      790
   15.955      919
   15.970      924
   15.985      796
   16.000      647
   16.015      469
   16.030      376
   16.045      312
   16.060      328
   16.075      384
   16.090      372
   16.105      432
   16.120      481
   16.135      565
   16.150      610
   16.165      612
   16.180      581
   16.195      621
   16.210      654
   16.225      735
   16.240      931
   16.255     1128
   16.270     1269
   16.285     1070
   16.300      843
   16.315      682
   16.330      655
   16.345      677
   16.360      833
   16.375      938
   16.390     1015
   16.405      988
   16.420      862
   16.435      720
   16.450      677
   16.465      720
   16.480      738
   16.495      838
   16.510     1009
   16.525     1191
   16.540     1237
   16.555     1129
   16.570      935
   16.585      881
   16.600      916
   16.615      948
   16.630      941
   16.645      890
   16.660      785
   16.675      618
   16.690      435
   16.705      367
   16.720      344
   16.735      322
   16.750      315
   16.765      347
   16.780      357
   16.795      370
   16.810      419
   16.825      459
   16.840      562
   16.855      677
   16.870      655
   16.885      535
   16.900      418
   16.915      301
   16.930      290
   16.945      284
   16.960      287
   16.975      309
   16.990      341
   17.005      401
   17.020      461
   17.035      475
   17.050      523
   17.065      510
   17.080      478
   17.095      433
   17.110      387
   17.125      356
   17.140      349
   17.155      331
   17.170      335
   17.185      311
   17.200      305
   17.215      330
   17.230      361
   17.245      411
   17.260      458
   17.275      510
   17.290      629
   17.305      637
   17.320      543
   17.335      445
   17.350      324
   17.365      236
   17.380      221
   17.395      206
   17.410      218
   17.425      225
   17.440      246
   17.455      270
   17.470      305
   17.485      336
   17.500      311
   17.515      321
   17.530      335
   17.545      334
   17.560      376
   17.575      401
   17.590      389
   17.605      318
   17.620      285
   17.635      233
   17.650      231
   17.665      223
   17.680      230
   17.695      192
   17.710      175
   17.725      167
   17.740      181
   17.755      180
   17.770      176
   17.785      170
   17.800      167
   17.815      156
   17.830      171
   17.845      155
   17.860      160
   17.875      163
   17.890      179
   17.905      189
   17.920      186
   17.935      185
   17.950      175
   17.965      194
   17.980      207
   17.995      212
   18.010      222
   18.025      287
   18.040      303
   18.055      333
   18.070      354
   18.085      370
   18.100      431
   18.115      428
   18.130      408
   18.145      356
   18.160      289
   18.175      211
   18.190      183
   18.205      192
   18.220      173
   18.235      190
   18.250      224
   18.265      210
   18.280      245
   18.295      264
   18.310      288
   18.325      302
   18.340      362
   18.355      440
   18.370      523
   18.385      555
   18.400      548
   18.415      495
   18.430      494
   18.445      537
   18.460      577
   18.475      675
   18.490      736
   18.505      696
   18.520      668
   18.535      600
   18.550      488
   18.565      398
   18.580      366
   18.595      336
   18.610      339
   18.625      364
   18.640      368
   18.655      407
   18.670      440
   18.685      520
   18.700      536
   18.715      512
   18.730      429
   18.745      403
   18.760      331
   18.775      338
   18.790      367
   18.805      318
   18.820      269
   18.835      190
   18.850      206
   18.865      193
   18.880      186
   18.895      180
   18.910      180
   18.925      172
   18.940      166
   18.955      183
   18.970      151
   18.985      142
   19.000      161
   19.015      187
   19.030      163
   19.045      159
   19.060      154
   19.075      157
   19.090      181
   19.105      157
   19.120      135
   19.135      130
   19.150      151
   19.165      166
   19.180      164
   19.195      143
   19.210      176
   19.225      200
   19.240      184
   19.255      183
   19.270      166
   19.285      177
   19.300      214
   19.315      198
   19.330      225
   19.345      256
   19.360      303
   19.375      345
   19.390      387
   19.405      400
   19.420      401
   19.435      443
   19.450      416
   19.465      372
   19.480      306
   19.495      271
   19.510      263
   19.525      268
   19.540      269
   19.555      319
   19.570      357
   19.585      406
   19.600      461
   19.615      555
   19.630      643
   19.645      722
   19.660      875
   19.675     1044
   19.690     1115
   19.705     1030
   19.720      889
   19.735      691
   19.750      617
   19.765      647
   19.780      721
   19.795      806
   19.810      796
   19.825      770
   19.840      684
   19.855      572
   19.870      471
   19.885      412
   19.900      341
   19.915      290
   19.930      267
   19.945      285
   19.960      311
   19.975      326
   19.990      324
   20.005      336
   20.020      354
   20.035      321
   20.050      262
   20.065      218
   20.080      205
   20.095      182
   20.110      165
   20.125      162
   20.140      154
   20.155      165
   20.170      173
   20.185      169
   20.200      165
   20.215      169
   20.230      184
   20.245      166
   20.260      173
   20.275      202
   20.290      189
   20.305      203
   20.320      197
   20.335      195
   20.350      193
   20.365      208
   20.380      187
   20.395      190
   20.410      210
   20.425      217
   20.440      232
   20.455      220
   20.470      222
   20.485      237
   20.500      302
   20.515      342
   20.530      377
   20.545      423
   20.560      437
   20.575      419
   20.590      384
   20.605      360
   20.620      410
   20.635      431
   20.650      460
   20.665      447
   20.680      366
   20.695      308
   20.710      215
   20.725      232
   20.740      220
   20.755      207
   20.770      232
   20.785      215
   20.800      256
   20.815      248
   20.830      239
   20.845      225
   20.860      222
   20.875      213
   20.890      202
   20.905      238
   20.920      207
   20.935      217
   20.950      203
   20.965      196
   20.980      216
   20.995      213
   21.010      243
   21.025      254
   21.040      244
   21.055      224
   21.070      199
   21.085      183
   21.100      197
   21.115      194
   21.130      179
   21.145      190
   21.160      156
   21.175      188
   21.190      189
   21.205      169
   21.220      188
   21.235      197
   21.250      216
   21.265      241
   21.280      289
   21.295      353
   21.310      387
   21.325      456
   21.340      541
   21.355      631
   21.370      720
   21.385      697
   21.400      625
   21.415      494
   21.430      444
   21.445      458
   21.460      530
   21.475      584
   21.490      697
   21.505      821
   21.520     1075
   21.535     1366
   21.550     1668
   21.565     1765
   21.580     1539
   21.595     1151
   21.610      815
   21.625      620
   21.640      517
   21.655      493
   21.670      498
   21.685      437
   21.700      395
   21.715      351
   21.730      305
   21.745      255
   21.760      226
   21.775      198
   21.790      191
   21.805      186
   21.820      176
   21.835      183
   21.850      184
   21.865      186
   21.880      212
   21.895      216
   21.910      199
   21.925      193
   21.940      229
   21.955      211
   21.970      246
   21.985      219
   22.000      186
   22.015      218
   22.030      233
   22.045      251
   22.060      264
   22.075      249
   22.090      254
   22.105      273
   22.120      289
   22.135      350
   22.150      362
   22.165      369
   22.180      338
   22.195      304
   22.210      252
   22.225      236
   22.240      241
   22.255      233
   22.270      273
   22.285      298
   22.300      316
   22.315      387
   22.330      420
   22.345      482
   22.360      491
   22.375      516
   22.390      509
   22.405      436
   22.420      385
   22.435      361
   22.450      331
   22.465      333
   22.480      336
   22.495      400
   22.510      416
   22.525      428
   22.540      513
   22.555      593
   22.570      629
   22.585      661
   22.600      627
   22.615      561
   22.630      531
   22.645      486
   22.660      446
   22.675      383
   22.690      339
   22.705      301
   22.720      293
   22.735      288
   22.750      286
   22.765      290
   22.780      343
   22.795      384
   22.810      410
   22.825      408
   22.840      397
   22.855      347
   22.870      314
   22.885      297
   22.900      310
   22.915      330
   22.930      340
   22.945      352
   22.960      341
   22.975      288
   22.990      276
   23.005      248
   23.020      235
   23.035      203
   23.050      187
   23.065      222
   23.080      225
   23.095      234
   23.110      266
   23.125      276
   23.140      276
   23.155      277
   23.170      259
   23.185      211
   23.200      186
   23.215      169
   23.230      149
   23.245      141
   23.260      169
   23.275      178
   23.290      171
   23.305      161
   23.320      161
   23.335      180
   23.350      159
   23.365      185
   23.380      184
   23.395      167
   23.410      154
   23.425      154
   23.440      159
   23.455      155
   23.470      169
   23.485      177
   23.500      171
   23.515      165
   23.530      156
   23.545      174
   23.560      205
   23.575      192
   23.590      185
   23.605      184
   23.620      225
   23.635      220
   23.650      200
   23.665      213
   23.680      219
   23.695      241
   23.710      285
   23.725      304
   23.740      294
   23.755      262
   23.770      227
   23.785      209
   23.800      184
   23.815      164
   23.830      190
   23.845      176
   23.860      183
   23.875      192
   23.890      223
   23.905      223
   23.920      260
   23.935      293
   23.950      359
   23.965      388
   23.980      390
   23.995      354
   24.010      305
   24.025      277
   24.040      248
   24.055      218
   24.070      232
   24.085      217
   24.100      246
   24.115      263
   24.130      280
   24.145      237
   24.160      234
   24.175      255
   24.190      246
   24.205      254
   24.220      245
   24.235      210
   24.250      201
   24.265      198
   24.280      221
   24.295      193
   24.310      204
   24.325      223
   24.340      208
   24.355      251
   24.370      231
   24.385      222
   24.400      208
   24.415      201
   24.430      199
   24.445      205
   24.460      214
   24.475      213
   24.490      210
   24.505      183
   24.520      156
   24.535      151
   24.550      165
   24.565      163
   24.580      184
   24.595      177
   24.610      184
   24.625      205
   24.640      256
   24.655      266
   24.670      285
   24.685      340
   24.700      337
   24.715      326
   24.730      284
   24.745      271
   24.760      262
   24.775      270
   24.790      260
   24.805      281
   24.820      275
   24.835      261
   24.850      290
   24.865      318
   24.880      349
   24.895      348
   24.910      314
   24.925      287
   24.940      271
   24.955      228
   24.970      206
   24.985      178
   25.000      188
   25.015      205
   25.030      202
   25.045      177
   25.060      201
   25.075      210
   25.090      206
   25.105      253
   25.120      299
   25.135      298
   25.150      275
   25.165      285
   25.180      283
   25.195      275
   25.210      269
   25.225      279
   25.240      269
   25.255      280
   25.270      274
   25.285      306
   25.300      323
   25.315      346
   25.330      397
   25.345      472
   25.360      536
   25.375      582
   25.390      564
   25.405      543
   25.420      481
   25.435      365
   25.450      303
   25.465      265
   25.480      278
   25.495      239
   25.510      236
   25.525      263
   25.540      287
   25.555      320
   25.570      359
   25.585      345
   25.600      320
   25.615      308
   25.630      273
   25.645      236
   25.660      214
   25.675      215
   25.690      206
   25.705      204
   25.720      220
   25.735      223
   25.750      217
   25.765      226
   25.780      238
   25.795      253
   25.810      271
   25.825      273
   25.840      274
   25.855      290
   25.870      266
   25.885      255
   25.900      233
   25.915      221
   25.930      215
   25.945      187
   25.960      202
   25.975      190
   25.990      174
   26.005      186
   26.020      182
   26.035      205
   26.050      194
   26.065      192
   26.080      194
   26.095      177
   26.110      177
   26.125      183
   26.140      177
   26.155      163
   26.170      164
   26.185      154
   26.200      172
   26.215      158
   26.230      170
   26.245      176
   26.260      182
   26.275      192
   26.290      199
   26.305      226
   26.320      272
   26.335      284
   26.350      295
   26.365      274
   26.380      236
   26.395      201
   26.410      182
   26.425      205
   26.440      165
   26.455      182
   26.470      184
   26.485      208
   26.500      216
   26.515      229
   26.530      260
   26.545      285
   26.560      353
   26.575      403
   26.590      477
   26.605      477
   26.620      482
   26.635      431
   26.650      444
   26.665      460
   26.680      457
   26.695      372
   26.710      321
   26.725      278
   26.740      249
   26.755      213
   26.770      223
   26.785      231
   26.800      227
   26.815      206
   26.830      200
   26.845      214
   26.860      195
   26.875      216
   26.890      210
   26.905      218
   26.920      228
   26.935      223
   26.950      238
   26.965      200
   26.980      167
   26.995      172
   27.010      179
   27.025      199
   27.040      200
   27.055      200
   27.070      204
   27.085      181
   27.100      211
   27.115      260
   27.130      256
   27.145      255
   27.160      283
   27.175      303
   27.190      339
   27.205      347
   27.220      369
   27.235      437
   27.250      426
   27.265      393
   27.280      398
   27.295      416
   27.310      399
   27.325      417
   27.340      385
   27.355      374
   27.370      384
   27.385      355
   27.400      324
   27.415      301
   27.430      231
   27.445      222
   27.460      253
   27.475      265
   27.490      257
   27.505      248
   27.520      263
   27.535      264
   27.550      275
   27.565      285
   27.580      284
   27.595      270
   27.610      243
   27.625      248
   27.640      233
   27.655      231
   27.670      203
   27.685      184
   27.700      202
   27.715      191
   27.730      188
   27.745      222
   27.760      209
   27.775      221
   27.790      270
   27.805      295
   27.820      267
   27.835      278
   27.850      250
   27.865      232
   27.880      253
   27.895      243
   27.910      248
   27.925      240
   27.940      231
   27.955      246
   27.970      281
   27.985      263
   28.000      289
   28.015      266
   28.030      279
   28.045      261
   28.060      215
   28.075      221
   28.090      205
   28.105      190
   28.120      210
   28.135      183
   28.150      189
   28.165      190
   28.180      162
   28.195      195
   28.210      184
   28.225      184
   28.240      163
   28.255      171
   28.270      178
   28.285      180
   28.300      177
   28.315      191
   28.330      200
   28.345      213
   28.360      216
   28.375      236
   28.390      235
   28.405      256
   28.420      254
   28.435      232
   28.450      225
   28.465      219
   28.480      225
   28.495      215
   28.510      243
   28.525      242
   28.540      290
   28.555      281
   28.570      286
   28.585      300
   28.600      313
   28.615      271
   28.630      279
   28.645      249
   28.660      253
   28.675      226
   28.690      221
   28.705      230
   28.720      234
   28.735      223
   28.750      212
   28.765      221
   28.780      232
   28.795      232
   28.810      218
   28.825      199
   28.840      207
   28.855      206
   28.870      223
   28.885      246
   28.900      224
   28.915      216
   28.930      215
   28.945      215
   28.960      207
   28.975      215
   28.990      200
   29.005      186
   29.020      171
   29.035      181
   29.050      170
   29.065      176
   29.080      164
   29.095      159
   29.110      179
   29.125      222
   29.140      215
   29.155      218
   29.170      249
   29.185      234
   29.200      239
   29.215      270
   29.230      279
   29.245      297
   29.260      269
   29.275      274
   29.290      297
   29.305      351
   29.320      380
   29.335      396
   29.350      351
   29.365      319
   29.380      276
   29.395      246
   29.410      247
   29.425      245
   29.440      265
   29.455      255
   29.470      220
   29.485      226
   29.500      223
   29.515      246
   29.530      237
   29.545      228
   29.560      220
   29.575      198
   29.590      208
   29.605      173
   29.620      167
   29.635      163
   29.650      170
   29.665      188
   29.680      213
   29.695      174
   29.710      173
   29.725      208
   29.740      201
   29.755      192
   29.770      200
   29.785      179
   29.800      199
   29.815      191
   29.830      197
   29.845      181
   29.860      189
   29.875      160
   29.890      188
   29.905      180
   29.920      180
   29.935      185
   29.950      191
   29.965      196
   29.980      205
   29.995      193
   30.010      192
   30.025      182
   30.040      208
   30.055      222
   30.070      187
   30.085      202
   30.100      205
   30.115      206
   30.130      195
   30.145      208
   30.160      222
   30.175      226
   30.190      230
   30.205      230
   30.220      230
   30.235      236
   30.250      258
   30.265      262
   30.280      277
   30.295      278
   30.310      263
   30.325      221
   30.340      219
   30.355      177
   30.370      174
   30.385      170
   30.400      156
   30.415      187
   30.430      169
   30.445      175
   30.460      189
   30.475      182
   30.490      177
   30.505      203
   30.520      201
   30.535      216
   30.550      245
   30.565      248
   30.580      246
   30.595      271
   30.610      300
   30.625      313
   30.640      293
   30.655      248
   30.670      256
   30.685      275
   30.700      221
   30.715      236
   30.730      224
   30.745      211
   30.760      216
   30.775      208
   30.790      214
   30.805      210
   30.820      185
   30.835      178
   30.850      224
   30.865      218
   30.880      206
   30.895      177
   30.910      191
   30.925      215
   30.940      215
   30.955      231
   30.970      231
   30.985      235
   31.000      220
   31.015      232
   31.030      253
   31.045      245
   31.060      234
   31.075      226
   31.090      207
   31.105      221
   31.120      183
   31.135      181
   31.150      236
   31.165      228
   31.180      257
   31.195      271
   31.210      256
   31.225      268
   31.240      274
   31.255      229
   31.270      222
   31.285      232
   31.300      204
   31.315      234
   31.330      261
   31.345      240
   31.360      283
   31.375      253
   31.390      267
   31.405      263
   31.420      274
   31.435      282
   31.450      292
   31.465      295
   31.480      295
   31.495      368
   31.510      373
   31.525      319
   31.540      297
   31.555      289
   31.570      250
   31.585      258
   31.600      270
   31.615      248
   31.630      241
   31.645      230
   31.660      241
   31.675      234
   31.690      211
   31.705      229
   31.720      227
   31.735      257
   31.750      250
   31.765      243
   31.780      226
   31.795      209
   31.810      191
   31.825      177
   31.840      168
   31.855      192
   31.870      194
   31.885      165
   31.900      179
   31.915      170
   31.930      174
   31.945      180
   31.960      179
   31.975      169
   31.990      182
   32.005      194
   32.020      196
   32.035      171
   32.050      173
   32.065      166
   32.080      175
   32.095      176
   32.110      168
   32.125      163
   32.140      153
   32.155      165
   32.170      161
   32.185      154
   32.200      163
   32.215      172
   32.230      178
   32.245      179
   32.260      191
   32.275      175
   32.290      175
   32.305      170
   32.320      190
   32.335      178
   32.350      173
   32.365      166
   32.380      186
   32.395      191
   32.410      196
   32.425      205
   32.440      177
   32.455      185
   32.470      183
   32.485      229
   32.500      209
   32.515      225
   32.530      252
   32.545      292
   32.560      305
   32.575      328
   32.590      339
   32.605      348
   32.620      360
   32.635      318
   32.650      289
   32.665      239
   32.680      219
   32.695      213
   32.710      198
   32.725      207
   32.740      214
   32.755      206
   32.770      192
   32.785      220
   32.800      206
   32.815      199
   32.830      200
   32.845      180
   32.860      206
   32.875      194
   32.890      203
   32.905      189
   32.920      199
   32.935      186
   32.950      194
   32.965      220
   32.980      254
   32.995      251
   33.010      259
   33.025      244
   33.040      275
   33.055      273
   33.070      282
   33.085      308
   33.100      313
   33.115      285
   33.130      297
   33.145      287
   33.160      271
   33.175      261
   33.190      280
   33.205      294
   33.220      272
   33.235      263
   33.250      243
   33.265      212
   33.280      220
   33.295      202
   33.310      218
   33.325      244
   33.340      242
   33.355      257
   33.370      254
   33.385      263
   33.400      294
   33.415      347
   33.430      336
   33.445      298
   33.460      290
   33.475      262
   33.490      239
   33.505      227
   33.520      229
   33.535      226
   33.550      247
   33.565      223
   33.580      228
   33.595      235
   33.610      245
   33.625      248
   33.640      232
   33.655      230
   33.670      223
   33.685      215
   33.700      230
   33.715      169
   33.730      193
   33.745      179
   33.760      187
   33.775      181
   33.790      165
   33.805      186
   33.820      187
   33.835      170
   33.850      182
   33.865      168
   33.880      164
   33.895      173
   33.910      182
   33.925      176
   33.940      160
   33.955      200
   33.970      160
   33.985      184
   34.000      184
   34.015      198
   34.030      222
   34.045      212
   34.060      227
   34.075      212
   34.090      260
   34.105      244
   34.120      232
   34.135      250
   34.150      202
   34.165      183
   34.180      205
   34.195      189
   34.210      196
   34.225      156
   34.240      168
   34.255      165
   34.270      172
   34.285      155
   34.300      194
   34.315      212
   34.330      213
   34.345      224
   34.360      213
   34.375      217
   34.390      208
   34.405      223
   34.420      209
   34.435      215
   34.450      205
   34.465      182
   34.480      200
   34.495      195
   34.510      175
   34.525      176
   34.540      203
   34.555      209
   34.570      213
   34.585      216
   34.600      208
   34.615      216
   34.630      205
   34.645      197
   34.660      227
   34.675      225
   34.690      216
   34.705      214
   34.720      197
   34.735      207
   34.750      210
   34.765      216
   34.780      223
   34.795      232
   34.810      257
   34.825      266
   34.840      276
   34.855      289
   34.870      261
   34.885      259
   34.900      289
   34.915      272
   34.930      268
   34.945      296
   34.960      307
   34.975      325
   34.990      340
   35.005      336
   35.020      333
   35.035      356
   35.050      372
   35.065      342
   35.080      329
   35.095      335
   35.110      326
   35.125      326
   35.140      348
   35.155      361
   35.170      384
   35.185      381
   35.200      363
   35.215      325
   35.230      295
   35.245      297
   35.260      285
   35.275      266
   35.290      253
   35.305      234
   35.320      222
   35.335      209
   35.350      188
   35.365      194
   35.380      185
   35.395      174
   35.410      160
   35.425      159
   35.440      170
   35.455      162
   35.470      157
   35.485      150
   35.500      171
   35.515      172
   35.530      165
   35.545      163
   35.560      144
   35.575      183
   35.590      183
   35.605      165
   35.620      186
   35.635      176
   35.650      181
   35.665      202
   35.680      190
   35.695      185
   35.710      181
   35.725      181
   35.740      186
   35.755      191
   35.770      182
   35.785      189
   35.800      206
   35.815      195
   35.830      205
   35.845      236
   35.860      217
   35.875      225
   35.890      227
   35.905      211
   35.920      196
   35.935      192
   35.950      169
   35.965      182
   35.980      177
   35.995      187
   36.010      179
   36.025      154
   36.040      176
   36.055      178
   36.070      175
   36.085      154
   36.100      172
   36.115      190
   36.130      182
   36.145      179
   36.160      192
   36.175      178
   36.190      162
   36.205      177
   36.220      169
   36.235      156
   36.250      163
   36.265      163
   36.280      194
   36.295      189
   36.310      196
   36.325      212
   36.340      215
   36.355      202
   36.370      191
   36.385      199
   36.400      178
   36.415      182
   36.430      167
   36.445      175
   36.460      172
   36.475      155
   36.490      152
   36.505      177
   36.520      188
   36.535      190
   36.550      182
   36.565      166
   36.580      169
   36.595      164
   36.610      175
   36.625      184
   36.640      210
   36.655      191
   36.670      200
   36.685      206
   36.700      207
   36.715      163
   36.730      181
   36.745      164
   36.760      183
   36.775      188
   36.790      170
   36.805      178
   36.820      206
   36.835      210
   36.850      211
   36.865      218
   36.880      199
   36.895      178
   36.910      172
   36.925      164
   36.940      162
   36.955      164
   36.970      163
   36.985      165
   37.000      140
   37.015      150
   37.030      150
   37.045      151
   37.060      150
   37.075      153
   37.090      146
   37.105      136
   37.120      160
   37.135      146
   37.150      147
   37.165      134
   37.180      148
   37.195      160
   37.210      156
   37.225      148
   37.240      157
   37.255      153
   37.270      184
   37.285      146
   37.300      150
   37.315      151
   37.330      155
   37.345      167
   37.360      167
   37.375      149
   37.390      170
   37.405      182
   37.420      167
   37.435      187
   37.450      175
   37.465      181
   37.480      170
   37.495      186
   37.510      186
   37.525      202
   37.540      191
   37.555      195
   37.570      192
   37.585      202
   37.600      191
   37.615      178
   37.630      184
   37.645      165
   37.660      166
   37.675      156
   37.690      152
   37.705      167
   37.720      178
   37.735      188
   37.750      207
   37.765      172
   37.780      160
   37.795      170
   37.810      156
   37.825      187
   37.840      177
   37.855      175
   37.870      173
   37.885      196
   37.900      197
   37.915      206
   37.930      215
   37.945      231
   37.960      214
   37.975      216
   37.990      197
   38.005      176
   38.020      186
   38.035      171
   38.050      169
   38.065      155
   38.080      165
   38.095      168
   38.110      167
   38.125      175
   38.140      194
   38.155      184
   38.170      163
   38.185      170
   38.200      184
   38.215      184
   38.230      185
   38.245      178
   38.260      159
   38.275      165
   38.290      163
   38.305      176
   38.320      161
   38.335      143
   38.350      153
   38.365      170
   38.380      173
   38.395      186
   38.410      178
   38.425      149
   38.440      150
   38.455      174
   38.470      198
   38.485      194
   38.500      193
   38.515      186
   38.530      203
   38.545      187
   38.560      181
   38.575      178
   38.590      178
   38.605      168
   38.620      175
   38.635      176
   38.650      167
   38.665      156
   38.680      164
   38.695      153
   38.710      148
   38.725      154
   38.740      152
   38.755      150
   38.770      126
   38.785      130
   38.800      148
   38.815      145
   38.830      141
   38.845      151
   38.860      132
   38.875      147
   38.890      156
   38.905      135
   38.920      129
   38.935      134
   38.950      139
   38.965      143
   38.980      127
   38.995      134
   39.010      138
   39.025      139
   39.040      148
   39.055      154
   39.070      150
   39.085      153
   39.100      151
   39.115      147
   39.130      128
   39.145      148
   39.160      144
   39.175      145
   39.190      151
   39.205      140
   39.220      158
   39.235      161
   39.250      171
   39.265      169
   39.280      173
   39.295      163
   39.310      193
   39.325      196
   39.340      187
   39.355      193
   39.370      185
   39.385      174
   39.400      167
   39.415      163
   39.430      156
   39.445      182
   39.460      181
   39.475      166
   39.490      162
   39.505      148
   39.520      163
   39.535      142
   39.550      160
   39.565      149
   39.580      119
   39.595      118
   39.610      151
   39.625      156
   39.640      163
   39.655      142
   39.670      141
   39.685      141
   39.700      146
   39.715      155
   39.730      143
   39.745      139
   39.760      143
   39.775      163
   39.790      146
   39.805      147
   39.820      140
   39.835      138
   39.850      171
   39.865      146
   39.880      154
   39.895      166
   39.910      151
   39.925      173
   39.940      190
   39.955      177
   39.970      179
   39.985      194
   40.000      224
   40.015      227
   40.030      215
   40.045      238
   40.060      202
   40.075      190
   40.090      182
   40.105      169
   40.120      168
   40.135      167
   40.150      163
   40.165      170
   40.180      174
   40.195      171
   40.210      161
   40.225      193
   40.240      205
   40.255      215
   40.270      188
   40.285      184
   40.300      190
   40.315      202
   40.330      200
   40.345      184
   40.360      193
   40.375      199
   40.390      177
   40.405      182
   40.420      164
   40.435      156
   40.450      150
   40.465      147
   40.480      171
   40.495      152
   40.510      148
   40.525      134
   40.540      146
   40.555      141
   40.570      135
   40.585      144
   40.600      151
   40.615      156
   40.630      151
   40.645      153
   40.660      126
   40.675      146
   40.690      136
   40.705      128
   40.720      133
   40.735      146
   40.750      148
   40.765      133
   40.780      123
   40.795      129
   40.810      133
   40.825      120
   40.840      140
   40.855      131
   40.870      122
   40.885      112
   40.900      122
   40.915      146
   40.930      159
   40.945      142
   40.960      142
   40.975      153
   40.990      147
   41.005      133
   41.020      149
   41.035      155
   41.050      141
   41.065      141
   41.080      139
   41.095      147
   41.110      138
   41.125      130
   41.140      142
   41.155      144
   41.170      137
   41.185      136
   41.200      146
   41.215      144
   41.230      145
   41.245      161
   41.260      152
   41.275      153
   41.290      147
   41.305      147
   41.320      151
   41.335      165
   41.350      153
   41.365      153
   41.380      138
   41.395      154
   41.410      169
   41.425      156
   41.440      140
   41.455      137
   41.470      158
   41.485      166
   41.500      164
   41.515      172
   41.530      171
   41.545      155
   41.560      148
   41.575      161
   41.590      157
   41.605      161
   41.620      169
   41.635      157
   41.650      175
   41.665      169
   41.680      161
   41.695      147
   41.710      130
   41.725      125
   41.740      133
   41.755      130
   41.770      149
   41.785      152
   41.800      156
   41.815      143
   41.830      146
   41.845      170
   41.860      156
   41.875      161
   41.890      158
   41.905      153
   41.920      142
   41.935      142
   41.950      160
   41.965      156
   41.980      151
   41.995      141
   42.010      151
   42.025      149
   42.040      173
   42.055      160
   42.070      133
   42.085      134
   42.100      112
   42.115      137
   42.130      138
   42.145      128
   42.160      149
   42.175      124
   42.190      123
   42.205      146
   42.220      145
   42.235      148
   42.250      147
   42.265      141
   42.280      161
   42.295      135
   42.310      140
   42.325      142
   42.340      134
   42.355      152
   42.370      143
   42.385      126
   42.400      131
   42.415      142
   42.430      131
   42.445      146
   42.460      151
   42.475      140
   42.490      163
   42.505      149
   42.520      164
   42.535      159
   42.550      170
   42.565      158
   42.580      148
   42.595      167
   42.610      146
   42.625      143
   42.640      149
   42.655      160
   42.670      145
   42.685      160
   42.700      165
   42.715      147
   42.730      138
   42.745      143
   42.760      133
   42.775      136
   42.790      133
   42.805      156
   42.820      158
   42.835      139
   42.850      135
   42.865      115
   42.880      123
   42.895      135
   42.910      149
   42.925      149
   42.940      138
   42.955      155
   42.970      150
   42.985      131
   43.000      130
   43.015      150
   43.030      131
   43.045      123
   43.060      153
   43.075      127
   43.090      124
   43.105      137
   43.120      142
   43.135      139
   43.150      129
   43.165      152
   43.180      152
   43.195      162
   43.210      148
   43.225      144
   43.240      141
   43.255      141
   43.270      130
   43.285      128
   43.300      145
   43.315      147
   43.330      136
   43.345      146
   43.360      139
   43.375      125
   43.390      141
   43.405      133
   43.420      129
   43.435      123
   43.450      139
   43.465      144
   43.480      155
   43.495      135
   43.510      138
   43.525      142
   43.540      134
   43.555      154
   43.570      154
   43.585      135
   43.600      153
   43.615      160
   43.630      137
   43.645      129
   43.660      139
   43.675      152
   43.690      153
   43.705      160
   43.720      144
   43.735      124
   43.750      126
   43.765      132
   43.780      138
   43.795      142
   43.810      147
   43.825      158
   43.840      147
   43.855      129
   43.870      123
   43.885      138
   43.900      160
   43.915      158
   43.930      164
   43.945      158
   43.960      148
   43.975      161
   43.990      155
   44.005      145
   44.020      146
   44.035      157
   44.050      148
   44.065      137
   44.080      142
   44.095      137
   44.110      143
   44.125      145
   44.140      139
   44.155      143
   44.170      159
   44.185      178
   44.200      175
   44.215      171
   44.230      171
   44.245      165
   44.260      173
   44.275      171
   44.290      179
   44.305      162
   44.320      152
   44.335      150
   44.350      170
   44.365      179
   44.380      158
   44.395      148
   44.410      158
   44.425      165
   44.440      177
   44.455      157
   44.470      182
   44.485      190
   44.500      174
   44.515      190
   44.530      191
   44.545      215
   44.560      190
   44.575      192
   44.590      197
   44.605      189
   44.620      185
   44.635      188
   44.650      158
   44.665      164
   44.680      181
   44.695      162
   44.710      165
   44.725      153
   44.740      149
   44.755      151
   44.770      158
   44.785      136
   44.800      163
   44.815      140
   44.830      144
   44.845      158
   44.860      151
   44.875      141
   44.890      128
   44.905      138
   44.920      138
   44.935      175
   44.950      147
   44.965      172
   44.980      163
   44.995      174
   45.010      156
   45.025      162
   45.040      141
   45.055      147
   45.070      135
   45.085      125
   45.100      130
   45.115      133
   45.130      132
   45.145      139
   45.160      130
   45.175      136
   45.190      135
   45.205      147
   45.220      145
   45.235      143
   45.250      134
   45.265      135
   45.280      136
   45.295      149
   45.310      146
   45.325      131
   45.340      133
   45.355      135
   45.370      125
   45.385      141
   45.400      135
   45.415      138
   45.430      137
   45.445      148
   45.460      128
   45.475      128
   45.490      124
   45.505      138
   45.520      150
   45.535      128
   45.550      132
   45.565      135
   45.580      146
   45.595      147
   45.610      149
   45.625      163
   45.640      142
   45.655      141
   45.670      163
   45.685      154
   45.700      156
   45.715      148
   45.730      139
   45.745      150
   45.760      143
   45.775      131
   45.790      138
   45.805      134
   45.820      148
   45.835      134
   45.850      129
   45.865      132
   45.880      123
   45.895      144
   45.910      150
   45.925      156
   45.940      159
   45.955      154
   45.970      147
   45.985      142
