    4.000      286
    4.015      278
    4.030      294
    4.045      302
    4.060      285
    4.075      291
    4.090      280
    4.105      262
    4.120      291
    4.135      276
    4.150      301
    4.165      279
    4.180      300
    4.195      285
    4.210      298
    4.225      304
    4.240      286
    4.255      277
    4.270      291
    4.285      260
    4.300      271
    4.315      279
    4.330      272
    4.345      274
    4.360      287
    4.375      302
    4.390      293
    4.405      274
    4.420      286
    4.435      305
    4.450      307
    4.465      287
    4.480      290
    4.495      280
    4.510      283
    4.525      269
    4.540      294
    4.555      300
    4.570      292
    4.585      263
    4.600      279
    4.615      275
    4.630      270
    4.645      272
    4.660      254
    4.675      263
    4.690      262
    4.705      278
    4.720      297
    4.735      283
    4.750      281
    4.765      268
    4.780      277
    4.795      277
    4.810      261
    4.825      282
    4.840      294
    4.855      260
    4.870      277
    4.885      283
    4.900      295
    4.915      261
    4.930      283
    4.945      287
    4.960      243
    4.975      279
    4.990      306
    5.005      269
    5.020      301
    5.035      285
    5.050      299
    5.065      287
    5.080      299
    5.095      287
    5.110      289
    5.125      285
    5.140      281
    5.155      301
    5.170      288
    5.185      287
    5.200      280
    5.215      272
    5.230      271
    5.245      294
    5.260      272
    5.275      294
    5.290      301
    5.305      295
    5.320      255
    5.335      284
    5.350      237
    5.365      294
    5.380      274
    5.395      270
    5.410      274
    5.425      282
    5.440      267
    5.455      282
    5.470      296
    5.485      305
    5.500      255
    5.515      244
    5.530      258
    5.545      281
    5.560      278
    5.575      289
    5.590      291
    5.605      287
    5.620      290
    5.635      273
    5.650      252
    5.665      285
    5.680      289
    5.695      258
    5.710      272
    5.725      283
    5.740      269
    5.755      288
    5.770      275
    5.785      247
    5.800      258
    5.815      290
    5.830      263
    5.845      272
    5.860      277
    5.875      273
    5.890      309
    5.905      297
    5.920      298
    5.935      302
    5.950      298
    5.965      304
    5.980      293
    5.995      296
    6.010      298
    6.025      276
    6.040      289
    6.055      300
    6.070      274
    6.085      294
    6.100      294
    6.115      297
    6.130      279
    6.145      289
    6.160      298
    6.175      269
    6.190      280
    6.205      303
    6.220      295
    6.235      311
    6.250      320
    6.265      316
    6.280      327
    6.295      350
    6.310      385
    6.325      375
    6.340      368
    6.355      375
    6.370      340
    6.385      369
    6.400      424
    6.415      442
    6.430      502
    6.445      524
    6.460      536
    6.475      579
    6.490      644
    6.505      732
    6.520      859
    6.535      895
    6.550      857
    6.565      906
    6.580      990
    6.595      892
    6.610      634
    6.625      448
    6.640      328
    6.655      304
    6.670      288
    6.685      285
    6.700      293
    6.715      269
    6.730      236
    6.745      267
    6.760      284
    6.775      289
    6.790      299
    6.805      312
    6.820      302
    6.835      304
    6.850      309
    6.865      287
    6.880      281
    6.895      284
    6.910      295
    6.925      295
    6.940      290
    6.955      334
    6.970      333
    6.985      303
    7.000      335
    7.015      352
    7.030      358
    7.045      396
    7.060      446
    7.075      443
    7.090      522
    7.105      558
    7.120      493
    7.135      366
    7.150      337
    7.165      283
    7.180      317
    7.195      289
    7.210      264
    7.225      290
    7.240      297
    7.255      260
    7.270      286
    7.285      296
    7.300      274
    7.315      286
    7.330      294
    7.345      288
    7.360      281
    7.375      289
    7.390      316
    7.405      306
    7.420      321
    7.435      336
    7.450      306
    7.465      311
    7.480      302
    7.495      314
    7.510      352
    7.525      364
    7.540      388
    7.555      416
    7.570      415
    7.585      409
    7.600      359
    7.615      330
    7.630      291
    7.645      285
    7.660      292
    7.675      250
    7.690      262
    7.705      261
    7.720      272
    7.735      260
    7.750      276
    7.765      249
    7.780      266
    7.795      279
    7.810      282
    7.825      281
    7.840      264
    7.855      250
    7.870      262
    7.885      278
    7.900      262
    7.915      273
    7.930      265
    7.945      254
    7.960      253
    7.975      253
    7.990      271
    8.005      257
    8.020      275
    8.035      275
    8.050      295
    8.065      268
    8.080      271
    8.095      267
    8.110      268
    8.125      274
    8.140      294
    8.155      292
    8.170      282
    8.185      288
    8.200      270
    8.215      268
    8.230      272
    8.245      277
    8.260      287
    8.275      294
    8.290      291
    8.305      288
    8.320      280
    8.335      272
    8.350      276
    8.365      284
    8.380      279
    8.395      277
    8.410      308
    8.425      290
    8.440      274
    8.455      305
    8.470      307
    8.485      290
    8.500      292
    8.515      296
    8.530      292
    8.545      295
    8.560      290
    8.575      275
    8.590      307
    8.605      290
    8.620      316
    8.635      303
    8.650      276
    8.665      263
    8.680      300
    8.695      337
    8.710      289
    8.725      305
    8.740      312
    8.755      271
    8.770      279
    8.785      321
    8.800      303
    8.815      264
    8.830      292
    8.845      286
    8.860      273
    8.875      305
    8.890      331
    8.905      300
    8.920      265
    8.935      314
    8.950      297
    8.965      295
    8.980      289
    8.995      307
    9.010      318
    9.025      301
    9.040      312
    9.055      307
    9.070      284
    9.085      292
    9.100      308
    9.115      334
    9.130      337
    9.145      321
    9.160      308
    9.175      306
    9.190      302
    9.205      313
    9.220      301
    9.235      330
    9.250      327
    9.265      310
    9.280      312
    9.295      338
    9.310      333
    9.325      326
    9.340      345
    9.355      337
    9.370      311
    9.385      297
    9.400      309
    9.415      301
    9.430      318
    9.445      325
    9.460      302
    9.475      334
    9.490      340
    9.505      323
    9.520      341
    9.535      352
    9.550      340
    9.565      359
    9.580      334
    9.595      326
    9.610      380
    9.625      362
    9.640      354
    9.655      398
    9.670      421
    9.685      426
    9.700      404
    9.715      381
    9.730      334
    9.745      319
    9.760      309
    9.775      314
    9.790      337
    9.805      322
    9.820      331
    9.835      318
    9.850      364
    9.865      325
    9.880      351
    9.895      361
    9.910      362
    9.925      365
    9.940      345
    9.955      325
    9.970      339
    9.985      318
   10.000      342
   10.015      333
   10.030      355
   10.045      341
   10.060      366
   10.075      356
   10.090      345
   10.105      337
   10.120      315
   10.135      344
   10.150      360
   10.165      381
   10.180      379
   10.195      371
   10.210      399
   10.225      421
   10.240      419
   10.255      483
   10.270      470
   10.285      470
   10.300      580
   10.315      607
   10.330      694
   10.345      811
   10.360      743
   10.375      560
   10.390      445
   10.405      337
   10.420      354
   10.435      389
   10.450      363
   10.465      346
   10.480      336
   10.495      319
   10.510      330
   10.525      360
   10.540      352
   10.555      325
   10.570      325
   10.585      337
   10.600      339
   10.615      350
   10.630      400
   10.645      393
   10.660      397
   10.675      398
   10.690      443
   10.705      475
   10.720      484
   10.735      511
   10.750      494
   10.765      443
   10.780      380
   10.795      359
   10.810      372
   10.825      339
   10.840      320
   10.855      344
   10.870      334
   10.885      325
   10.900      332
   10.915      359
   10.930      367
   10.945      344
   10.960      404
   10.975      423
   10.990      432
   11.005      418
   11.020      446
   11.035      484
   11.050      519
   11.065      602
   11.080      692
   11.095      801
   11.110      840
   11.125      645
   11.140      492
   11.155      428
   11.170      395
   11.185      361
   11.200      375
   11.215      399
   11.230      436
   11.245      447
   11.260      435
   11.275      487
   11.290      518
   11.305      513
   11.320      437
   11.335      347
   11.350      346
   11.365      346
   11.380      322
   11.395      332
   11.410      339
   11.425      329
   11.440      319
   11.455      315
   11.470      315
   11.485      328
   11.500      322
   11.515      340
   11.530      337
   11.545      346
   11.560      341
   11.575      331
   11.590      333
   11.605      380
   11.620      361
   11.635      357
   11.650      401
   11.665      407
   11.680      431
   11.695      460
   11.710      547
   11.725      596
   11.740      603
   11.755      552
   11.770      473
   11.785      442
   11.800      422
   11.815      411
   11.830      430
   11.845      416
   11.860      446
   11.875      458
   11.890      444
   11.905      472
   11.920      519
   11.935      487
   11.950      465
   11.965      429
   11.980      386
   11.995      385
   12.010      388
   12.025      381
   12.040      346
   12.055      362
   12.070      356
   12.085      323
   12.100      319
   12.115      316
   12.130      314
   12.145      319
   12.160      325
   12.175      329
   12.190      339
   12.205      327
   12.220      344
   12.235      347
   12.250      400
   12.265      406
   12.280      434
   12.295      420
   12.310      448
   12.325      549
   12.340      580
   12.355      659
   12.370      756
   12.385      888
   12.400     1045
   12.415     1212
   12.430     1440
   12.445     1668
   12.460     2013
   12.475     2566
   12.490     3276
   12.505     4197
   12.520     4789
   12.535     4473
   12.550     3605
   12.565     3120
   12.580     3097
   12.595     3306
   12.610     3256
   12.625     2869
   12.640     2021
   12.655     1227
   12.670      832
   12.685      627
   12.700      551
   12.715      510
   12.730      496
   12.745      482
   12.760      522
   12.775      537
   12.790      600
   12.805      598
   12.820      653
   12.835      751
   12.850      903
   12.865     1060
   12.880     1269
   12.895     1427
   12.910     1467
   12.925     1317
   12.940     1097
   12.955     1048
   12.970     1110
   12.985     1321
   13.000     1590
   13.015     1944
   13.030     2430
   13.045     3004
   13.060     3960
   13.075     4944
   13.090     5213
   13.105     4613
   13.120     3900
   13.135     3798
   13.150     4449
   13.165     5583
   13.180     7455
   13.195     9172
   13.210     8540
   13.225     5927
   13.240     3292
   13.255     1803
   13.270     1125
   13.285      893
   13.300      849
   13.315      837
   13.330      853
   13.345      936
   13.360      984
   13.375     1163
   13.390     1342
   13.405     1637
   13.420     1837
   13.435     1951
   13.450     2041
   13.465     2128
   13.480     1796
   13.495     1304
   13.510      816
   13.525      612
   13.540      545
   13.555      496
   13.570      486
   13.585      497
   13.600      540
   13.615      593
   13.630      611
   13.645      668
   13.660      740
   13.675      940
   13.690     1112
   13.705     1146
   13.720      945
   13.735      720
   13.750      523
   13.765      426
   13.780      404
   13.795      379
   13.810      400
   13.825      381
   13.840      409
   13.855      383
   13.870      360
   13.885      359
   13.900      366
   13.915      389
   13.930      380
   13.945      377
   13.960      379
   13.975      397
   13.990      387
   14.005      424
   14.020      407
   14.035      434
   14.050      491
   14.065      512
   14.080      566
   14.095      621
   14.110      693
   14.125      815
   14.140      954
   14.155     1114
   14.170     1113
   14.185     1049
   14.200      890
   14.215      950
   14.230     1065
   14.245     1126
   14.260     1092
   14.275     1034
   14.290     1101
   14.305     1231
   14.320     1438
   14.335     1788
   14.350     2183
   14.365     2207
   14.380     1846
   14.395     1262
   14.410      842
   14.425      559
   14.440      466
   14.455      421
   14.470      403
   14.485      411
   14.500      387
   14.515      395
   14.530      405
   14.545      393
   14.560      377
   14.575      366
   14.590      342
   14.605      375
   14.620      381
   14.635      389
   14.650      381
   14.665      387
   14.680      367
   14.695      388
   14.710      471
   14.725      510
   14.740      521
   14.755      565
   14.770      689
   14.785      748
   14.800      877
   14.815     1053
   14.830     1264
   14.845     1554
   14.860     1789
   14.875     1995
   14.890     2300
   14.905     2653
   14.920     3277
   14.935     4061
   14.950     4402
   14.965     3469
   14.980     2191
   14.995     1271
   15.010      924
   15.025      759
   15.040      689
   15.055      685
   15.070      712
   15.085      737
   15.100      827
   15.115      920
   15.130     1048
   15.145     1265
   15.160     1427
   15.175     1366
   15.190     1203
   15.205     1084
   15.220     1008
   15.235      975
   15.250      833
   15.265      713
   15.280      663
   15.295      615
   15.310      598
   15.325      616
   15.340      754
   15.355      749
   15.370      815
   15.385      921
   15.400     1125
   15.415     1318
   15.430     1523
   15.445     1575
   15.460     1333
   15.475      967
   15.490      774
   15.505      718
   15.520      675
   15.535      714
   15.550      811
   15.565      898
   15.580     1035
   15.595     1255
   15.610     1469
   15.625     1631
   15.640     1581
   15.655     1283
   15.670      936
   15.685      720
   15.700      582
   15.715      519
   15.730      538
   15.745      485
   15.760      499
   15.775      559
   15.790      576
   15.805      554
   15.820      573
   15.835      613
   15.850      657
   15.865      762
   15.880      858
   15.895      993
   15.910     1213
   15.925     1468
   15.940     1800
   15.955     1995
   15.970     2045
   15.985     1879
   16.000     1496
   16.015     1109
   16.030      817
   16.045      689
   16.060      703
   16.075      754
   16.090      853
   16.105      950
   16.120     1147
   16.135     1284
   16.150     1346
   16.165     1255
   16.180     1199
   16.195     1226
   16.210     1386
   16.225     1661
   16.240     2121
   16.255     2650
   16.270     2839
   16.285     2500
   16.300     1895
   16.315     1520
   16.330     1539
   16.345     1629
   16.360     1884
   16.375     2251
   16.390     2393
   16.405     2165
   16.420     1875
   16.435     1694
   16.450     1559
   16.465     1536
   16.480     1631
   16.495     1900
   16.510     2380
   16.525     2752
   16.540     2903
   16.555     2558
   16.570     2250
   16.585     2122
   16.600     2194
   16.615     2209
   16.630     2237
   16.645     2032
   16.660     1707
   16.675     1259
   16.690      955
   16.705      781
   16.720      740
   16.735      706
   16.750      682
   16.765      721
   16.780      745
   16.795      866
   16.810     1029
   16.825     1207
   16.840     1510
   16.855     1597
   16.870     1350
   16.885     1069
   16.900      769
   16.915      663
   16.930      654
   16.945      679
   16.960      677
   16.975      733
   16.990      812
   17.005      895
   17.020      997
   17.035     1051
   17.050     1175
   17.065     1166
   17.080      969
   17.095      861
   17.110      841
   17.125      812
   17.140      782
   17.155      794
   17.170      723
   17.185      676
   17.200      649
   17.215      663
   17.230      744
   17.245      831
   17.260      963
   17.275     1131
   17.290     1417
   17.305     1434
   17.320     1292
   17.335      978
   17.350      686
   17.365      531
   17.380      502
   17.395      487
   17.410      476
   17.425      531
   17.440      559
   17.455      613
   17.470      696
   17.485      689
   17.500      746
   17.515      674
   17.530      688
   17.545      757
   17.560      834
   17.575      874
   17.590      848
   17.605      696
   17.620      580
   17.635      531
   17.650      491
   17.665      481
   17.680      469
   17.695      426
   17.710      422
   17.725      412
   17.740      404
   17.755      412
   17.770      379
   17.785      369
   17.800      370
   17.815      350
   17.830      382
   17.845      358
   17.860      376
   17.875      375
   17.890      387
   17.905      399
   17.920      413
   17.935      398
   17.950      434
   17.965      460
   17.980      449
   17.995      477
   18.010      542
   18.025      566
   18.040      662
   18.055      736
   18.070      780
   18.085      885
   18.100      988
   18.115     1005
   18.130      905
   18.145      695
   18.160      533
   18.175      458
   18.190      445
   18.205      406
   18.220      429
   18.235      427
   18.250      461
   18.265      485
   18.280      500
   18.295      565
   18.310      607
   18.325      679
   18.340      842
   18.355     1010
   18.370     1167
   18.385     1255
   18.400     1227
   18.415     1109
   18.430     1091
   18.445     1286
   18.460     1478
   18.475     1588
   18.490     1639
   18.505     1555
   18.520     1396
   18.535     1301
   18.550     1078
   18.565      912
   18.580      811
   18.595      798
   18.610      812
   18.625      835
   18.640      863
   18.655      942
   18.670     1096
   18.685     1234
   18.700     1328
   18.715     1218
   18.730      986
   18.745      844
   18.760      818
   18.775      830
   18.790      768
   18.805      683
   18.820      540
   18.835      514
   18.850      452
   18.865      430
   18.880      428
   18.895      405
   18.910      380
   18.925      428
   18.940      382
   18.955      404
   18.970      409
   18.985      393
   19.000      417
   19.015      405
   19.030      376
   19.045      385
   19.060      379
   19.075      350
   19.090      371
   19.105      347
   19.120      386
   19.135      351
   19.150      367
   19.165      365
   19.180      396
   19.195      373
   19.210      388
   19.225      382
   19.240      391
   19.255      404
   19.270      394
   19.285      402
   19.300      420
   19.315      496
   19.330      556
   19.345      596
   19.360      693
   19.375      809
   19.390      909
   19.405      969
   19.420      935
   19.435      936
   19.450      930
   19.465      800
   19.480      625
   19.495      555
   19.510      567
   19.525      512
   19.540      547
   19.555      661
   19.570      726
   19.585      837
   19.600      911
   19.615     1105
   19.630     1325
   19.645     1627
   19.660     2006
   19.675     2432
   19.690     2575
   19.705     2372
   19.720     1964
   19.735     1616
   19.750     1415
   19.765     1509
   19.780     1754
   19.795     1891
   19.810     1910
   19.825     1810
   19.840     1524
   19.855     1304
   19.870     1094
   19.885      872
   19.900      711
   19.915      600
   19.930      599
   19.945      582
   19.960      637
   19.975      723
   19.990      784
   20.005      802
   20.020      779
   20.035      685
   20.050      568
   20.065      508
   20.080      436
   20.095      393
   20.110      375
   20.125      408
   20.140      392
   20.155      391
   20.170      391
   20.185      369
   20.200      387
   20.215      363
   20.230      355
   20.245      388
   20.260      383
   20.275      392
   20.290      405
   20.305      401
   20.320      429
   20.335      434
   20.350      450
   20.365      445
   20.380      425
   20.395      442
   20.410      459
   20.425      494
   20.440      473
   20.455      492
   20.470      503
   20.485      585
   20.500      705
   20.515      786
   20.530      913
   20.545     1022
   20.560     1002
   20.575      929
   20.590      884
   20.605      867
   20.620      943
   20.635     1038
   20.650     1046
   20.665      911
   20.680      781
   20.695      653
   20.710      548
   20.725      494
   20.740      491
   20.755      514
   20.770      551
   20.785      586
   20.800      520
   20.815      478
   20.830      478
   20.845      475
   20.860      488
   20.875      504
   20.890      507
   20.905      517
   20.920      467
   20.935      461
   20.950      465
   20.965      457
   20.980      503
   20.995      560
   21.010      575
   21.025      585
   21.040      519
   21.055      469
   21.070      412
   21.085      383
   21.100      379
   21.115      410
   21.130      368
   21.145      372
   21.160      364
   21.175      404
   21.190      381
   21.205      397
   21.220      466
   21.235      469
   21.250      496
   21.265      567
   21.280      598
   21.295      731
   21.310      843
   21.325      998
   21.340     1268
   21.355     1534
   21.370     1583
   21.385     1499
   21.400     1252
   21.415     1077
   21.430     1029
   21.445      999
   21.460     1115
   21.475     1293
   21.490     1566
   21.505     2030
   21.520     2701
   21.535     3413
   21.550     4064
   21.565     3947
   21.580     3118
   21.595     2212
   21.610     1515
   21.625     1224
   21.640     1192
   21.655     1119
   21.670     1064
   21.685      919
   21.700      832
   21.715      774
   21.730      675
   21.745      565
   21.760      482
   21.775      450
   21.790      420
   21.805      410
   21.820      365
   21.835      413
   21.850      421
   21.865      429
   21.880      425
   21.895      426
   21.910      465
   21.925      442
   21.940      468
   21.955      465
   21.970      447
   21.985      434
   22.000      462
   22.015      478
   22.030      506
   22.045      538
   22.060      575
   22.075      572
   22.090      592
   22.105      645
   22.120      696
   22.135      811
   22.150      863
   22.165      858
   22.180      737
   22.195      625
   22.210      507
   22.225      456
   22.240      509
   22.255      498
   22.270      582
   22.285      645
   22.300      763
   22.315      837
   22.330      865
   22.345     1011
   22.360     1108
   22.375     1241
   22.390     1229
   22.405     1035
   22.420      862
   22.435      709
   22.450      689
   22.465      761
   22.480      808
   22.495      880
   22.510      947
   22.525     1085
   22.540     1258
   22.555     1404
   22.570     1515
   22.585     1548
   22.600     1493
   22.615     1335
   22.630     1270
   22.645     1070
   22.660      932
   22.675      850
   22.690      729
   22.705      656
   22.720      633
   22.735      653
   22.750      620
   22.765      658
   22.780      818
   22.795      902
   22.810      979
   22.825      939
   22.840      858
   22.855      703
   22.870      686
   22.885      637
   22.900      718
   22.915      781
   22.930      867
   22.945      829
   22.960      743
   22.975      643
   22.990      548
   23.005      486
   23.020      454
   23.035      443
   23.050      440
   23.065      487
   23.080      468
   23.095      556
   23.110      620
   23.125      668
   23.140      659
   23.155      608
   23.170      499
   23.185      450
   23.200      420
   23.215      366
   23.230      349
   23.245      356
   23.260      355
   23.275      339
   23.290      350
   23.305      360
   23.320      356
   23.335      347
   23.350      372
   23.365      392
   23.380      368
   23.395      350
   23.410      328
   23.425      383
   23.440      378
   23.455      310
   23.470      331
   23.485      357
   23.500      397
   23.515      383
   23.530      405
   23.545      410
   23.560      461
   23.575      431
   23.590      430
   23.605      404
   23.620      411
   23.635      425
   23.650      445
   23.665      464
   23.680      506
   23.695      591
   23.710      625
   23.725      647
   23.740      589
   23.755      540
   23.770      477
   23.785      428
   23.800      413
   23.815      413
   23.830      423
   23.845      446
   23.860      419
   23.875      447
   23.890      506
   23.905      504
   23.920      605
   23.935      679
   23.950      784
   23.965      861
   23.980      822
   23.995      780
   24.010      686
   24.025      584
   24.040      493
   24.055      488
   24.070      510
   24.085      513
   24.100      584
   24.115      528
   24.130      526
   24.145      545
   24.160      562
   24.175      587
   24.190      612
   24.205      588
   24.220      543
   24.235      457
   24.250      456
   24.265      482
   24.280      481
   24.295      456
   24.310      462
   24.325      451
   24.340      517
   24.355      510
   24.370      476
   24.385      467
   24.400      440
   24.415      415
   24.430      442
   24.445      453
   24.460      485
   24.475      451
   24.490      420
   24.505      368
   24.520      380
   24.535      367
   24.550      366
   24.565      376
   24.580      379
   24.595      426
   24.610      438
   24.625      457
   24.640      557
   24.655      621
   24.670      716
   24.685      776
   24.700      757
   24.715      711
   24.730      624
   24.745      564
   24.760      552
   24.775      604
   24.790      614
   24.805      595
   24.820      556
   24.835      580
   24.850      623
   24.865      721
   24.880      767
   24.895      778
   24.910      733
   24.925      608
   24.940      511
   24.955      477
   24.970      456
   24.985      434
   25.000      400
   25.015      442
   25.030      441
   25.045      429
   25.060      467
   25.075      502
   25.090      547
   25.105      637
   25.120      686
   25.135      664
   25.150      610
   25.165      580
   25.180      570
   25.195      584
   25.210      598
   25.225      564
   25.240      564
   25.255      595
   25.270      665
   25.285      702
   25.300      783
   25.315      876
   25.330     1046
   25.345     1142
   25.360     1186
   25.375     1243
   25.390     1192
   25.405     1015
   25.420      797
   25.435      658
   25.450      580
   25.465      516
   25.480      484
   25.495      510
   25.510      545
   25.525      542
   25.540      638
   25.555      692
   25.570      681
   25.585      749
   25.600      722
   25.615      679
   25.630      585
   25.645      467
   25.660      467
   25.675      461
   25.690      489
   25.705      450
   25.720      470
   25.735      494
   25.750      505
   25.765      510
   25.780      545
   25.795      580
   25.810      556
   25.825      569
   25.840      601
   25.855      602
   25.870      636
   25.885      585
   25.900      538
   25.915      470
   25.930      462
   25.945      431
   25.960      423
   25.975      389
   25.990      409
   26.005      406
   26.020      437
   26.035      456
   26.050      453
   26.065      431
   26.080      426
   26.095      451
   26.110      389
   26.125      352
   26.140      372
   26.155      368
   26.170      366
   26.185      328
   26.200      352
   26.215      379
   26.230      382
   26.245      385
   26.260      408
   26.275      404
   26.290      447
   26.305      535
   26.320      582
   26.335      675
   26.350      631
   26.365      581
   26.380      531
   26.395      440
   26.410      407
   26.425      383
   26.440      402
   26.455      386
   26.470      440
   26.485      483
   26.500      492
   26.515      516
   26.530      660
   26.545      786
   26.560      939
   26.575      989
   26.590     1016
   26.605     1016
   26.620      956
   26.635      952
   26.650      987
   26.665      966
   26.680      878
   26.695      757
   26.710      614
   26.725      557
   26.740      519
   26.755      493
   26.770      457
   26.785      443
   26.800      458
   26.815      473
   26.830      477
   26.845      428
   26.860      446
   26.875      448
   26.890      491
   26.905      502
   26.920      492
   26.935      479
   26.950      470
   26.965      465
   26.980      410
   26.995      431
   27.010      437
   27.025      433
   27.040      448
   27.055      454
   27.070      456
   27.085      499
   27.100      536
   27.115      591
   27.130      576
   27.145      630
   27.160      670
   27.175      762
   27.190      815
   27.205      860
   27.220      837
   27.235      826
   27.250      808
   27.265      945
   27.280      959
   27.295      941
   27.310      900
   27.325      926
   27.340      913
   27.355      846
   27.370      819
   27.385      736
   27.400      684
   27.415      623
   27.430      561
   27.445      532
   27.460      499
   27.475      489
   27.490      550
   27.505      535
   27.520      567
   27.535      583
   27.550      652
   27.565      668
   27.580      587
   27.595      554
   27.610      535
   27.625      489
   27.640      455
   27.655      444
   27.670      432
   27.685      439
   27.700      462
   27.715      450
   27.730      478
   27.745      491
   27.760      539
   27.775      582
   27.790      620
   27.805      593
   27.820      568
   27.835      551
   27.850      502
   27.865      530
   27.880      537
   27.895      544
   27.910      521
   27.925      559
   27.940      574
   27.955      607
   27.970      561
   27.985      578
   28.000      577
   28.015      553
   28.030      516
   28.045      536
   28.060      516
   28.075      520
   28.090      479
   28.105      479
   28.120      470
   28.135      438
   28.150      395
   28.165      420
   28.180      416
   28.195      385
   28.210      396
   28.225      359
   28.240      384
   28.255      410
   28.270      397
   28.285      443
   28.300      464
   28.315      484
   28.330      484
   28.345      501
   28.360      501
   28.375      477
   28.390      509
   28.405      494
   28.420      508
   28.435      551
   28.450      483
   28.465      470
   28.480      477
   28.495      509
   28.510      544
   28.525      629
   28.540      614
   28.555      639
   28.570      630
   28.585      623
   28.600      656
   28.615      632
   28.630      632
   28.645      518
   28.660      503
   28.675      498
   28.690      506
   28.705      516
   28.720      507
   28.735      467
   28.750      480
   28.765      503
   28.780      483
   28.795      477
   28.810      433
   28.825      437
   28.840      425
   28.855      468
   28.870      501
   28.885      495
   28.900      527
   28.915      501
   28.930      486
   28.945      488
   28.960      451
   28.975      411
   28.990      414
   29.005      403
   29.020      406
   29.035      407
   29.050      413
   29.065      410
   29.080      422
   29.095      453
   29.110      460
   29.125      452
   29.140      473
   29.155      474
   29.170      520
   29.185      488
   29.200      540
   29.215      536
   29.230      550
   29.245      558
   29.260      603
   29.275      650
   29.290      707
   29.305      807
   29.320      834
   29.335      769
   29.350      711
   29.365      657
   29.380      599
   29.395      543
   29.410      523
   29.425      543
   29.440      555
   29.455      534
   29.470      541
   29.485      572
   29.500      564
   29.515      566
   29.530      514
   29.545      477
   29.560      426
   29.575      421
   29.590      393
   29.605      387
   29.620      420
   29.635      393
   29.650      411
   29.665      405
   29.680      418
   29.695      433
   29.710      445
   29.725      442
   29.740      425
   29.755      451
   29.770      453
   29.785      428
   29.800      407
   29.815      410
   29.830      419
   29.845      429
   29.860      418
   29.875      402
   29.890      422
   29.905      432
   29.920      433
   29.935      437
   29.950      403
   29.965      410
   29.980      401
   29.995      433
   30.010      452
   30.025      446
   30.040      469
   30.055      452
   30.070      464
   30.085      429
   30.100      452
   30.115      453
   30.130      502
   30.145      467
   30.160      471
   30.175      530
   30.190      517
   30.205      533
   30.220      553
   30.235      545
   30.250      579
   30.265      574
   30.280      555
   30.295      575
   30.310      524
   30.325      473
   30.340      457
   30.355      406
   30.370      379
   30.385      364
   30.400      370
   30.415      371
   30.430      404
   30.445      407
   30.460      401
   30.475      384
   30.490      408
   30.505      416
   30.520      482
   30.535      544
   30.550      543
   30.565      553
   30.580      594
   30.595      586
   30.610      617
   30.625      625
   30.640      596
   30.655      551
   30.670      554
   30.685      509
   30.700      510
   30.715      519
   30.730      491
   30.745      473
   30.760      476
   30.775      459
   30.790      427
   30.805      428
   30.820      437
   30.835      405
   30.850      442
   30.865      474
   30.880      416
   30.895      443
   30.910      413
   30.925      421
   30.940      451
   30.955      497
   30.970      506
   30.985      494
   31.000      534
   31.015      522
   31.030      520
   31.045      497
   31.060      516
   31.075      508
   31.090      484
   31.105      473
   31.120      463
   31.135      504
   31.150      499
   31.165      502
   31.180      533
   31.195      583
   31.210      573
   31.225      524
   31.240      545
   31.255      534
   31.270      461
   31.285      500
   31.300      505
   31.315      553
   31.330      572
   31.345      555
   31.360      565
   31.375      549
   31.390      576
   31.405      556
   31.420      593
   31.435      617
   31.450      642
   31.465      766
   31.480      759
   31.495      762
   31.510      729
   31.525      665
   31.540      590
   31.555      563
   31.570      552
   31.585      610
   31.600      519
   31.615      540
   31.630      513
   31.645      470
   31.660      469
   31.675      484
   31.690      506
   31.705      513
   31.720      486
   31.735      511
   31.750      475
   31.765      487
   31.780      476
   31.795      422
   31.810      414
   31.825      425
   31.840      413
   31.855      408
   31.870      436
   31.885      400
   31.900      406
   31.915      395
   31.930      409
   31.945      416
   31.960      442
   31.975      420
   31.990      428
   32.005      446
   32.020      426
   32.035      435
   32.050      446
   32.065      392
   32.080      383
   32.095      391
   32.110      342
   32.125      376
   32.140      396
   32.155      377
   32.170      388
   32.185      352
   32.200      422
   32.215      356
   32.230      398
   32.245      441
   32.260      379
   32.275      397
   32.290      373
   32.305      381
   32.320      372
   32.335      392
   32.350      403
   32.365      390
   32.380      439
   32.395      407
   32.410      412
   32.425      390
   32.440      408
   32.455      461
   32.470      466
   32.485      477
   32.500      545
   32.515      582
   32.530      668
   32.545      682
   32.560      740
   32.575      737
   32.590      758
   32.605      744
   32.620      682
   32.635      587
   32.650      531
   32.665      490
   32.680      472
   32.695      462
   32.710      454
   32.725      456
   32.740      475
   32.755      477
   32.770      479
   32.785      474
   32.800      464
   32.815      450
   32.830      469
   32.845      441
   32.860      419
   32.875      415
   32.890      421
   32.905      420
   32.920      446
   32.935      442
   32.950      453
   32.965      496
   32.980      504
   32.995      528
   33.010      563
   33.025      542
   33.040      564
   33.055      607
   33.070      649
   33.085      695
   33.100      652
   33.115      651
   33.130      603
   33.145      537
   33.160      561
   33.175      543
   33.190      552
   33.205      579
   33.220      535
   33.235      533
   33.250      496
   33.265      496
   33.280      495
   33.295      486
   33.310      492
   33.325      532
   33.340      547
   33.355      604
   33.370      639
   33.385      686
   33.400      705
   33.415      719
   33.430      691
   33.445      614
   33.460      526
   33.475      537
   33.490      528
   33.505      501
   33.520      524
   33.535      551
   33.550      569
   33.565      530
   33.580      558
   33.595      556
   33.610      513
   33.625      493
   33.640      497
   33.655      503
   33.670      530
   33.685      476
   33.700      414
   33.715      406
   33.730      426
   33.745      408
   33.760      433
   33.775      410
   33.790      425
   33.805      422
   33.820      377
   33.835      387
   33.850      377
   33.865      391
   33.880      385
   33.895      386
   33.910      378
   33.925      400
   33.940      400
   33.955      408
   33.970      394
   33.985      410
   34.000      437
   34.015      444
   34.030      463
   34.045      487
   34.060      472
   34.075      507
   34.090      517
   34.105      507
   34.120      510
   34.135      500
   34.150      478
   34.165      428
   34.180      398
   34.195      399
   34.210      402
   34.225      391
   34.240      390
   34.255      383
   34.270      422
   34.285      445
   34.300      436
   34.315      448
   34.330      478
   34.345      460
   34.360      499
   34.375      478
   34.390      490
   34.405      469
   34.420      457
   34.435      442
   34.450      436
   34.465      429
   34.480      456
   34.495      464
   34.510      406
   34.525      434
   34.540      437
   34.555      438
   34.570      460
   34.585      455
   34.600      447
   34.615      519
   34.630      498
   34.645      507
   34.660      486
   34.675      504
   34.690      492
   34.705      445
   34.720      464
   34.735      489
   34.750      496
   34.765      535
   34.780      562
   34.795      578
   34.810      585
   34.825      569
   34.840      627
   34.855      632
   34.870      605
   34.885      611
   34.900      595
   34.915      605
   34.930      646
   34.945      671
   34.960      679
   34.975      745
   34.990      791
   35.005      803
   35.020      813
   35.035      780
   35.050      720
   35.065      675
   35.080      688
   35.095      713
   35.110      744
   35.125      805
   35.140      868
   35.155      835
   35.170      831
   35.185      796
   35.200      683
   35.215      630
   35.230      583
   35.245      576
   35.260      534
   35.275      525
   35.290      514
   35.305      465
   35.320      412
   35.335      449
   35.350      411
   35.365      397
   35.380      390
   35.395      391
   35.410      383
   35.425      381
   35.440      393
   35.455      401
   35.470      434
   35.485      396
   35.500      396
   35.515      362
   35.530      380
   35.545      387
   35.560      384
   35.575      375
   35.590      365
   35.605      387
   35.620      354
   35.635      369
   35.650      384
   35.665      369
   35.680      394
   35.695      382
   35.710      393
   35.725      390
   35.740      395
   35.755      426
   35.770      399
   35.785      399
   35.800      436
   35.815      459
   35.830      493
   35.845      458
   35.860      515
   35.875      476
   35.890      497
   35.905      483
   35.920      424
   35.935      386
   35.950      407
   35.965      423
   35.980      419
   35.995      419
   36.010      417
   36.025      404
   36.040      367
   36.055      365
   36.070      369
   36.085      413
   36.100      418
   36.115      397
   36.130      371
   36.145      387
   36.160      365
   36.175      350
   36.190      367
   36.205      386
   36.220      360
   36.235      365
   36.250      403
   36.265      414
   36.280      409
   36.295      470
   36.310      457
   36.325      465
   36.340      419
   36.355      455
   36.370      391
   36.385      426
   36.400      405
   36.415      395
   36.430      380
   36.445      388
   36.460      397
   36.475      371
   36.490      396
   36.505      399
   36.520      375
   36.535      393
   36.550      410
   36.565      376
   36.580      384
   36.595      401
   36.610      414
   36.625      416
   36.640      461
   36.655      433
   36.670      404
   36.685      399
   36.700      382
   36.715      431
   36.730      396
   36.745      404
   36.760      443
   36.775      428
   36.790      445
   36.805      477
   36.820      476
   36.835      480
   36.850      489
   36.865      475
   36.880      402
   36.895      397
   36.910      363
   36.925      331
   36.940      328
   36.955      349
   36.970      355
   36.985      341
   37.000      362
   37.015      345
   37.030      339
   37.045      291
   37.060      357
   37.075      347
   37.090      363
   37.105      366
   37.120      353
   37.135      350
   37.150      345
   37.165      339
   37.180      359
   37.195      348
   37.210      357
   37.225      356
   37.240      361
   37.255      370
   37.270      338
   37.285      348
   37.300      375
   37.315      384
   37.330      387
   37.345      390
   37.360      398
   37.375      392
   37.390      398
   37.405      395
   37.420      394
   37.435      403
   37.450      374
   37.465      375
   37.480      415
   37.495      369
   37.510      398
   37.525      383
   37.540      461
   37.555      466
   37.570      468
   37.585      435
   37.600      422
   37.615      398
   37.630      365
   37.645      358
   37.660      368
   37.675      386
   37.690      369
   37.705      361
   37.720      366
   37.735      389
   37.750      397
   37.765      348
   37.780      378
   37.795      361
   37.810      357
   37.825      366
   37.840      384
   37.855      416
   37.870      440
   37.885      490
   37.900      536
   37.915      507
   37.930      510
   37.945      479
   37.960      407
   37.975      391
   37.990      382
   38.005      363
   38.020      385
   38.035      369
   38.050      328
   38.065      362
   38.080      382
   38.095      393
   38.110      395
   38.125      347
   38.140      397
   38.155      441
   38.170      417
   38.185      442
   38.200      429
   38.215      397
   38.230      414
   38.245      389
   38.260      381
   38.275      383
   38.290      366
   38.305      388
   38.320      377
   38.335      389
   38.350      409
   38.365      404
   38.380      423
   38.395      413
   38.410      416
   38.425      407
   38.440      372
   38.455      389
   38.470      386
   38.485      409
   38.500      423
   38.515      397
   38.530      388
   38.545      356
   38.560      341
   38.575      384
   38.590      387
   38.605      368
   38.620      372
   38.635      380
   38.650      342
   38.665      314
   38.680      368
   38.695      384
   38.710      345
   38.725      337
   38.740      318
   38.755      342
   38.770      333
   38.785      331
   38.800      355
   38.815      349
   38.830      330
   38.845      328
   38.860      328
   38.875      326
   38.890      290
   38.905      299
   38.920      320
   38.935      316
   38.950      314
   38.965      337
   38.980      307
   38.995      312
   39.010      318
   39.025      309
   39.040      313
   39.055      336
   39.070      312
   39.085      310
   39.100      321
   39.115      306
   39.130      312
   39.145      309
   39.160      341
   39.175      356
   39.190      338
   39.205      349
   39.220      379
   39.235      360
   39.250      363
   39.265      356
   39.280      363
   39.295      358
   39.310      403
   39.325      393
   39.340      383
   39.355      379
   39.370      388
   39.385      360
   39.400      374
   39.415      384
   39.430      373
   39.445      370
   39.460      353
   39.475      345
   39.490      350
   39.505      338
   39.520      323
   39.535      297
   39.550      304
   39.565      320
   39.580      301
   39.595      286
   39.610      297
   39.625      309
   39.640      333
   39.655      312
   39.670      329
   39.685      343
   39.700      333
   39.715      338
   39.730      333
   39.745      321
   39.760      300
   39.775      300
   39.790      288
   39.805      316
   39.820      313
   39.835      327
   39.850      323
   39.865      355
   39.880      360
   39.895      384
   39.910      362
   39.925      387
   39.940      392
   39.955      398
   39.970      419
   39.985      440
   40.000      453
   40.015      438
   40.030      460
   40.045      456
   40.060      408
   40.075      389
   40.090      396
   40.105      356
   40.120      353
   40.135      374
   40.150      370
   40.165      388
   40.180      369
   40.195      389
   40.210      387
   40.225      378
   40.240      428
   40.255      458
   40.270      412
   40.285      411
   40.300      392
   40.315      397
   40.330      430
   40.345      415
   40.360      376
   40.375      378
   40.390      372
   40.405      349
   40.420      338
   40.435      321
   40.450      339
   40.465      328
   40.480      336
   40.495      327
   40.510      319
   40.525      326
   40.540      303
   40.555      289
   40.570      327
   40.585      328
   40.600      340
   40.615      318
   40.630      294
   40.645      305
   40.660      329
   40.675      313
   40.690      287
   40.705      314
   40.720      302
   40.735      292
   40.750      327
   40.765      303
   40.780      305
   40.795      289
   40.810      331
   40.825      302
   40.840      270
   40.855      293
   40.870      308
   40.885      322
   40.900      331
   40.915      314
   40.930      337
   40.945      312
   40.960      311
   40.975      302
   40.990      326
   41.005      347
   41.020      321
   41.035      316
   41.050      319
   41.065      296
   41.080      288
   41.095      312
   41.110      327
   41.125      309
   41.140      297
   41.155      302
   41.170      332
   41.185      338
   41.200      336
   41.215      315
   41.230      282
   41.245      324
   41.260      335
   41.275      346
   41.290      339
   41.305      324
   41.320      347
   41.335      354
   41.350      341
   41.365      341
   41.380      307
   41.395      302
   41.410      343
   41.425      338
   41.440      336
   41.455      328
   41.470      332
   41.485      351
   41.500      361
   41.515      364
   41.530      347
   41.545      355
   41.560      355
   41.575      342
   41.590      371
   41.605      365
   41.620      357
   41.635      375
   41.650      344
   41.665      332
   41.680      324
   41.695      289
   41.710      331
   41.725      340
   41.740      344
   41.755      326
   41.770      327
   41.785      318
   41.800      334
   41.815      360
   41.830      328
   41.845      338
   41.860      333
   41.875      335
   41.890      369
   41.905      300
   41.920      322
   41.935      345
   41.950      333
   41.965      306
   41.980      309
   41.995      307
   42.010      320
   42.025      315
   42.040      306
   42.055      292
   42.070      302
   42.085      312
   42.100      315
   42.115      325
   42.130      285
   42.145      266
   42.160      328
   42.175      314
   42.190      319
   42.205      309
   42.220      279
   42.235      297
   42.250      310
   42.265      314
   42.280      355
   42.295      344
   42.310      309
   42.325      311
   42.340      322
   42.355      303
   42.370      310
   42.385      323
   42.400      326
   42.415      299
   42.430      293
   42.445      324
   42.460      350
   42.475      353
   42.490      341
   42.505      370
   42.520      355
   42.535      359
   42.550      356
   42.565      383
   42.580      348
   42.595      352
   42.610      348
   42.625      309
   42.640      325
   42.655      304
   42.670      317
   42.685      282
   42.700      318
   42.715      324
   42.730      311
   42.745      292
   42.760      308
   42.775      293
   42.790      292
   42.805      262
   42.820      288
   42.835      313
   42.850      310
   42.865      310
   42.880      311
   42.895      311
   42.910      301
   42.925      285
   42.940      296
   42.955      318
   42.970      297
   42.985      300
   43.000      314
   43.015      282
   43.030      290
   43.045      347
   43.060      329
   43.075      314
   43.090      313
   43.105      311
   43.120      306
   43.135      341
   43.150      321
   43.165      324
   43.180      314
   43.195      292
   43.210      286
   43.225      301
   43.240      317
   43.255      304
   43.270      285
   43.285      309
   43.300      300
   43.315      307
   43.330      285
   43.345      310
   43.360      307
   43.375      301
   43.390      308
   43.405      321
   43.420      322
   43.435      308
   43.450      293
   43.465      316
   43.480      323
   43.495      347
   43.510      308
   43.525      315
   43.540      319
   43.555      303
   43.570      318
   43.585      327
   43.600      375
   43.615      349
   43.630      403
   43.645      336
   43.660      312
   43.675      336
   43.690      333
   43.705      342
   43.720      329
   43.735      331
   43.750      306
   43.765      338
   43.780      319
   43.795      293
   43.810      314
   43.825      309
   43.840      311
   43.855      287
   43.870      313
   43.885      345
   43.900      330
   43.915      355
   43.930      342
   43.945      337
   43.960      346
   43.975      347
   43.990      333
   44.005      330
   44.020      331
   44.035      328
   44.050      297
   44.065      311
   44.080      305
   44.095      312
   44.110      305
   44.125      306
   44.140      316
   44.155      355
   44.170      325
   44.185      341
   44.200      360
   44.215      351
   44.230      350
   44.245      333
   44.260      340
   44.275      372
   44.290      340
   44.305      337
   44.320      332
   44.335      328
   44.350      358
   44.365      328
   44.380      347
   44.395      346
   44.410      373
   44.425      404
   44.440      379
   44.455      381
   44.470      437
   44.485      419
   44.500      432
   44.515      407
   44.530      401
   44.545      406
   44.560      426
   44.575      430
   44.590      377
   44.605      363
   44.620      347
   44.635      389
   44.650      388
   44.665      344
   44.680      339
   44.695      328
   44.710      362
   44.725      350
   44.740      316
   44.755      302
   44.770      319
   44.785      336
   44.800      320
   44.815      302
   44.830      326
   44.845      312
   44.860      325
   44.875      344
   44.890      334
   44.905      340
   44.920      344
   44.935      328
   44.950      361
   44.965      360
   44.980      346
   44.995      352
   45.010      338
   45.025      292
   45.040      310
   45.055      304
   45.070      293
   45.085      272
   45.100      292
   45.115      322
   45.130      292
   45.145      302
   45.160      286
   45.175      275
   45.190      299
   45.205      312
   45.220      301
   45.235      291
   45.250      267
   45.265      296
   45.280      275
   45.295      285
   45.310      318
   45.325      310
   45.340      276
   45.355      315
   45.370      316
   45.385      326
   45.400      316
   45.415      300
   45.430      312
   45.445      321
   45.460      316
   45.475      299
   45.490      292
   45.505      284
   45.520      302
   45.535      330
   45.550      319
   45.565      315
   45.580      321
   45.595      347
   45.610      317
   45.625      328
   45.640      353
   45.655      348
   45.670      334
   45.685      288
   45.700      311
   45.715      301
   45.730      298
   45.745      312
   45.760      286
   45.775      288
   45.790      296
   45.805      295
   45.820      302
   45.835      306
   45.850      297
   45.865      281
   45.880      275
   45.895      292
   45.910      316
   45.925      311
   45.940      319
   45.955      325
   45.970      321
   45.985      321
   46.000      301
   46.015      304
   46.030      309
   46.045      280
   46.060      295
   46.075      312
   46.090      318
   46.105      303
   46.120      280
   46.135      291
   46.150      325
   46.165      302
   46.180      289
   46.195      280
   46.210      286
   46.225      293
   46.240      288
   46.255      283
   46.270      301
   46.285      301
   46.300      289
   46.315      309
   46.330      291
   46.345      278
   46.360      275
   46.375      284
   46.390      287
   46.405      294
   46.420      272
   46.435      287
   46.450      271
   46.465      269
   46.480      290
   46.495      282
   46.510      263
   46.525      275
   46.540      292
   46.555      281
   46.570      273
   46.585      274
   46.600      270
   46.615      268
   46.630      272
   46.645      253
   46.660      279
   46.675      261
   46.690      267
   46.705      268
   46.720      265
   46.735      252
   46.750      278
   46.765      258
   46.780      227
   46.795      256
   46.810      259
   46.825      273
   46.840      295
   46.855      280
   46.870      277
   46.885      305
   46.900      292
   46.915      294
   46.930      289
   46.945      275
   46.960      273
   46.975      280
   46.990      294
   47.005      271
   47.020      266
   47.035      271
   47.050      272
   47.065      289
   47.080      277
   47.095      279
   47.110      291
   47.125      302
   47.140      291
   47.155      291
   47.170      288
   47.185      282
   47.200      306
   47.215      300
   47.230      292
   47.245      267
   47.260      281
   47.275      292
   47.290      303
   47.305      293
   47.320      281
   47.335      246
   47.350      289
   47.365      278
   47.380      317
   47.395      323
   47.410      314
   47.425      321
   47.440      303
   47.455      309
   47.470      293
   47.485      287
   47.500      275
   47.515      284
   47.530      297
   47.545      276
   47.560      281
   47.575      284
   47.590      286
   47.605      285
   47.620      256
   47.635      251
   47.650      276
   47.665      324
   47.680      308
   47.695      274
   47.710      283
   47.725      288
   47.740      291
   47.755      269
   47.770      266
   47.785      261
   47.800      277
   47.815      290
   47.830      262
   47.845      260
   47.860      290
   47.875      269
   47.890      264
   47.905      248
   47.920      296
   47.935      282
   47.950      266
   47.965      271
   47.980      278
   47.995      271
   48.010      268
   48.025      261
   48.040      252
   48.055      249
   48.070      247
   48.085      260
   48.100      270
   48.115      282
   48.130      267
   48.145      288
   48.160      290
   48.175      247
   48.190      278
   48.205      270
   48.220      273
   48.235      274
   48.250      272
   48.265      272
   48.280      268
   48.295      261
   48.310      279
   48.325      261
   48.340      247
   48.355      297
   48.370      299
   48.385      283
   48.400      250
   48.415      266
   48.430      276
   48.445      273
   48.460      266
   48.475      260
   48.490      262
   48.505      267
   48.520      268
   48.535      281
   48.550      258
   48.565      251
   48.580      236
   48.595      247
   48.610      255
   48.625      244
   48.640      242
   48.655      246
   48.670      243
   48.685      262
   48.700      279
   48.715      267
   48.730      263
   48.745      272
   48.760      270
   48.775      272
   48.790      265
   48.805      243
   48.820      283
   48.835      261
   48.850      260
   48.865      276
   48.880      248
   48.895      255
   48.910      232
   48.925      247
   48.940      230
   48.955      237
   48.970      229
   48.985      221
   49.000      230
   49.015      231
   49.030      250
   49.045      228
   49.060      232
   49.075      271
   49.090      250
   49.105      268
   49.120      248
   49.135      229
   49.150      245
   49.165      261
   49.180      261
   49.195      261
   49.210      269
   49.225      259
   49.240      276
   49.255      260
   49.270      283
   49.285      273
   49.300      283
   49.315      258
   49.330      270
   49.345      256
   49.360      250
   49.375      267
   49.390      248
   49.405      259
   49.420      246
   49.435      244
   49.450      273
   49.465      238
   49.480      270
   49.495      272
   49.510      255
   49.525      245
   49.540      261
   49.555      276
   49.570      285
   49.585      275
   49.600      283
   49.615      279
   49.630      247
   49.645      261
   49.660      268
   49.675      278
   49.690      253
   49.705      257
   49.720      256
   49.735      277
   49.750      302
   49.765      295
   49.780      278
   49.795      258
   49.810      260
   49.825      282
   49.840      250
   49.855      257
   49.870      247
   49.885      238
   49.900      238
   49.915      240
   49.930      252
   49.945      230
   49.960      210
   49.975      249
   49.990      242
   50.005      256
   50.020      244
   50.035      228
   50.050      251
   50.065      258
   50.080      260
   50.095      251
   50.110      251
   50.125      253
   50.140      243
   50.155      258
   50.170      274
   50.185      253
   50.200      250
   50.215      264
   50.230      232
   50.245      258
   50.260      260
   50.275      239
   50.290      239
   50.305      262
   50.320      243
   50.335      255
   50.350      264
   50.365      250
   50.380      246
   50.395      253
   50.410      248
   50.425      233
   50.440      256
   50.455      242
   50.470      233
   50.485      256
   50.500      265
   50.515      237
   50.530      260
   50.545      248
   50.560      258
   50.575      238
   50.590      254
   50.605      238
   50.620      231
   50.635      242
   50.650      220
   50.665      223
   50.680      239
   50.695      258
   50.710      245
   50.725      237
   50.740      261
   50.755      242
   50.770      243
   50.785      261
   50.800      262
   50.815      229
   50.830      236
   50.845      240
   50.860      242
   50.875      219
   50.890      249
   50.905      266
   50.920      232
   50.935      226
   50.950      264
   50.965      272
   50.980      235
   50.995      258
   51.010      257
   51.025      269
   51.040      265
   51.055      279
   51.070      271
   51.085      262
   51.100      259
   51.115      286
   51.130      296
   51.145      271
   51.160      277
   51.175      253
   51.190      234
   51.205      232
   51.220      257
   51.235      248
   51.250      254
   51.265      253
   51.280      255
   51.295      267
   51.310      277
   51.325      282
   51.340      281
   51.355      269
   51.370      276
   51.385      273
   51.400      246
   51.415      241
   51.430      252
   51.445      258
   51.460      275
   51.475      239
   51.490      268
   51.505      268
   51.520      250
   51.535      262
   51.550      252
   51.565      238
   51.580      251
   51.595      249
   51.610      236
   51.625      249
   51.640      254
   51.655      251
   51.670      238
   51.685      248
   51.700      242
   51.715      228
   51.730      244
   51.745      234
   51.760      224
   51.775      213
   51.790      215
   51.805      206
   51.820      229
   51.835      224
   51.850      237
   51.865      245
   51.880      248
   51.895      214
   51.910      263
   51.925      241
   51.940      232
   51.955      233
   51.970      242
   51.985      252
   52.000      252
   52.015      256
   52.030      266
   52.045      262
   52.060      262
   52.075      250
   52.090      253
   52.105      273
   52.120      280
   52.135      266
   52.150      262
   52.165      260
   52.180      257
   52.195      252
   52.210      263
   52.225      254
   52.240      261
   52.255      262
   52.270      244
   52.285      235
   52.300      263
   52.315      265
   52.330      264
   52.345      270
   52.360      264
   52.375      259
   52.390      238
   52.405      235
   52.420      253
   52.435      257
   52.450      253
   52.465      268
   52.480      261
   52.495      253
   52.510      244
   52.525      264
   52.540      262
   52.555      254
   52.570      240
   52.585      256
   52.600      250
   52.615      247
   52.630      251
   52.645      248
   52.660      274
   52.675      285
   52.690      252
   52.705      269
   52.720      256
   52.735      263
   52.750      272
   52.765      268
   52.780      247
   52.795      255
   52.810      248
   52.825      234
   52.840      241
   52.855      241
   52.870      234
   52.885      210
   52.900      221
   52.915      231
   52.930      236
   52.945      224
   52.960      246
   52.975      249
   52.990      239
   53.005      264
   53.020      241
   53.035      224
   53.050      229
   53.065      233
   53.080      219
   53.095      231
   53.110      282
   53.125      255
   53.140      219
   53.155      244
   53.170      238
   53.185      240
   53.200      247
   53.215      236
   53.230      238
   53.245      253
   53.260      238
   53.275      252
   53.290      265
   53.305      248
   53.320      265
   53.335      251
   53.350      243
   53.365      254
   53.380      251
   53.395      260
   53.410      251
   53.425      254
   53.440      284
   53.455      256
   53.470      259
   53.485      279
   53.500      266
   53.515      236
   53.530      280
   53.545      250
   53.560      245
   53.575      266
   53.590      250
   53.605      254
   53.620      240
   53.635      262
   53.650      247
   53.665      256
   53.680      246
   53.695      250
   53.710      228
   53.725      242
   53.740      250
   53.755      231
   53.770      264
   53.785      248
   53.800      225
   53.815      244
   53.830      257
   53.845      228
   53.860      252
   53.875      242
   53.890      235
   53.905      254
   53.920      254
   53.935      278
   53.950      254
   53.965      240
   53.980      246
   53.995      247
   54.010      234
   54.025      253
   54.040      238
   54.055      248
   54.070      244
   54.085      248
   54.100      244
   54.115      253
   54.130      229
   54.145      209
   54.160      218
   54.175      244
   54.190      250
   54.205      245
   54.220      228
   54.235      245
   54.250      242
   54.265      234
   54.280      235
   54.295      250
   54.310      223
   54.325      226
   54.340      231
   54.355      233
   54.370      239
   54.385      241
   54.400      232
   54.415      228
   54.430      237
   54.445      246
   54.460      268
   54.475      257
   54.490      236
   54.505      259
   54.520      259
   54.535      239
   54.550      237
   54.565      256
   54.580      253
   54.595      250
   54.610      255
   54.625      248
   54.640      230
   54.655      233
   54.670      253
   54.685      247
   54.700      247
   54.715      259
   54.730      235
   54.745      253
   54.760      254
   54.775      238
   54.790      267
   54.805      254
   54.820      261
   54.835      258
   54.850      255
   54.865      248
   54.880      245
   54.895      241
   54.910      267
